-3.932259764544897285e-02 -2.658771885224352205e-02 -3.093964579615518171e-02 -9.548464176768516054e-02 -6.163602290903737874e-02 -1.034663922731767632e-01 -2.485532841468808193e-03 -1.301144259072301891e-02 9.598350995860087387e-02 1.455068707135140638e-01 -6.080132373483286556e-02 -5.362126399145768565e-03 -4.476107626476747217e-03 1.596931784665610587e-01 1.133682535166856409e-01 6.835479668382375695e-03 -8.534568549237885049e-02 -1.636347286338360810e-02 -1.071122155018933431e-01 -1.113457413240180466e-01 -4.029813307594153765e-02 -2.011034606740144393e-01 3.561732145543211048e-01 8.231346182727930505e-02 -7.805098578618355210e-02 -2.567921725650877326e-02 2.510388466056792667e-01 3.713518417935580268e-02 3.655432618072314375e-03 -8.335380403330486243e-02 1.711385330431521301e-01 8.043057694606980945e-02 1.588254928150037437e-01 2.989309179583244172e-02 -1.043134583705288554e-01 -5.239754638216504584e-02 -8.300462064790152181e-03 8.268324532063599241e-02 -1.670693978438917149e-01 8.542306892944427632e-02 4.392074739781669929e-02 -9.746849778684589516e-02 -4.874367979951786493e-03 3.397198840111330387e-02 2.645459846423975359e-01 -2.690431000478751139e-02 -4.251540098924786598e-02 1.047522033922826390e-01 -4.934001966891748969e-02 -8.279378173194949786e-02 1.569411017296945821e-01 -3.314472209272373987e-02 2.047429987108680821e-02 -9.904599066760530479e-02 -4.662925269266957745e-02 -5.516497280361724043e-01 1.577436020735774880e-01 -1.008160367227506349e-02 4.087083824554486877e-02 4.755003360418095376e-02 2.312557751532341027e-02 8.847048025327240717e-02 5.335036864795689865e-02 -5.653595154027096781e-02 -3.506364991481367155e-02 5.536822457646346091e-02 -7.572250177674366527e-03 -4.561568510804538124e-02 -4.188143056463967256e-03
-4.645007985108813575e-02 3.813197286986355627e-02 -6.686563278068378968e-02 1.518055177363970276e-01 -4.095488397957317700e-02 6.140789296699861871e-02 1.221052663761931639e-01 2.417091408052176801e-02 1.149503559575584463e-02 -1.512973128880403251e-01 2.192351326668229641e-02 1.207728272866519376e-01 -3.358781457026676076e-01 -6.100453929093505034e-02 -9.896538704342734694e-02 -5.354502318231725566e-02 -2.268273450203718011e-01 6.145800955770520935e-02 1.531872919614706563e-01 2.067943229841353314e-01 -1.418270201412388798e-01 5.497725787188884744e-02 -1.335025960341049145e-01 -1.968653739927528692e-02 5.708094411742496710e-02 1.567928630023956438e-01 -2.389744801405043959e-02 7.394098164735112000e-02 -5.759694138271270747e-02 -2.631537200550851385e-01 -6.194495620706964162e-02 1.891232108970450354e-01 -1.578311870647648718e-01 1.037465349761934053e-01 3.174629714181829154e-01 3.992338995337441597e-03 -5.680551296303060910e-02 5.154873855711343544e-02 -8.253374138434681206e-02 9.127840585725943701e-02 -7.877193402745129303e-02 5.225367241722869704e-02 4.025429285337720105e-03 -9.955658319214709395e-02 4.922380117605679173e-02 -1.845508156270185829e-01 2.036541082491197599e-02 9.987609749131516612e-02 -1.126055063462735734e-01 -9.740201358586594860e-02 -5.501074448264556271e-02 3.851527063033480247e-02 5.193267773755465277e-02 -4.013848617421760662e-02 1.195440854559551430e-01 -2.757719236629626591e-01 -3.883326247932518144e-03 1.278642616069862459e-01 2.834747798073743510e-02 1.763251118148950877e-03 4.408721604117491616e-02 -1.406674813730729619e-02 -1.028660613680829616e-01 1.230558155172093993e-01 1.081948664537130123e-01 1.324213240492723709e-01 1.743356018625165649e-01 3.987369760455177284e-03 1.501221023415546252e-01
-3.041866130326073558e-02 1.589171330840457308e-01 -7.649652870169759700e-02 -1.568331951799772916e-02 -6.948846279921097602e-02 5.363983507338570406e-02 1.036045221645794517e-01 -3.433313649334027162e-02 4.361370771315967176e-02 -6.027273903683245948e-03 1.463918153289385793e-01 1.060624975528514785e-01 -9.696807682596443601e-02 -9.405045858863703145e-02 -1.820970955144773570e-02 4.468059922461688205e-02 -1.833279117232697319e-02 -6.926429285080346054e-02 -1.029162044048768654e-01 1.488645147792190260e-01 -4.434907889621210117e-03 -1.585658314437233402e-02 3.095251180902605648e-02 -6.928830679541908566e-01 2.757423620361350303e-02 -7.847495971334009224e-02 -3.223885439722541657e-02 -5.100772057598904063e-02 -4.392416435972568145e-02 -7.031735820836829132e-02 -5.071610117992266659e-02 -2.324825853198467934e-02 6.838541939818593152e-02 6.247494933639052145e-02 -2.253421923564605522e-01 3.793582326873699839e-02 -7.500752828385781612e-02 -8.541474014521682756e-02 7.686111836325351665e-02 7.709169818562215670e-02 -4.767527017257675026e-02 -4.134379301187741940e-02 -1.396420174474879462e-02 1.028804138363556830e-01 1.027661486683643377e-01 -9.938461930176745174e-02 4.983611942770266139e-03 1.102286566997617706e-01 7.325393810167082909e-02 -1.354082226959312137e-02 6.533286649793525191e-02 -1.150397870445597076e-01 -3.069996840823871476e-02 -9.711160363031891285e-02 1.702740376028695490e-01 -1.030247885256917878e-01 -3.067921474536934850e-03 7.895805425831553537e-02 -1.141839656827430549e-01 1.541548316485231718e-01 -7.151082686975875069e-02 7.688802347556270012e-02 -1.980978069075171877e-01 -9.144001883140816245e-02 -6.738295801717322786e-02 1.736335715405448732e-01 8.345212169240943945e-02 -5.112455606600074809e-02 3.522444477047929207e-02
1.024278078212330773e-01 9.265564807251060186e-02 -1.536255020643950697e-02 3.206800114606037783e-02 6.125462813357356040e-02 8.758245342515465215e-02 1.598407982343303113e-01 6.642675762745726964e-02 1.069198952686669507e-01 -1.384400658897255157e-03 -1.785410100530285607e-02 -1.625342098946749025e-01 -9.109747762636195845e-02 -5.643924936487245553e-02 2.127150227520794440e-02 6.331227844736275756e-02 1.742841254198976286e-01 -8.155229179336140333e-02 -6.446294400142577041e-02 -8.689043531567406872e-03 2.988011268618065777e-02 1.831125658876375240e-01 9.034995568997276905e-02 -1.571054933080755223e-01 -6.404098097573845960e-02 1.073677445378265899e-01 2.358457743392075034e-01 -5.937449703922377531e-02 2.981174605909653677e-02 1.300715642160779895e-01 -7.433878742439964382e-02 5.358161036743665923e-02 -1.399924063405401931e-01 1.497787460923246106e-01 -7.021255995534404770e-02 1.791782708888342845e-01 6.431789448022794120e-02 1.486904924317644129e-02 -1.757592188974926584e-01 -1.253047660750760371e-02 -2.136704860441630827e-02 -1.193069530842025133e-01 -2.725414803984796755e-02 -7.168401944295750561e-02 8.510865035137984980e-02 5.503177763770200626e-01 9.043940535474738474e-02 -9.065699945193152198e-02 3.644792245282433424e-02 -6.701588048264765785e-02 1.082456116088379577e-02 -8.703967810930379745e-02 -5.226566453589183425e-02 5.310919335100387079e-02 1.490520146701171111e-01 -1.618599000792424192e-01 6.854514447536540211e-02 -6.013053884087410372e-02 5.029066695830571726e-02 -2.191252861080160083e-02 -2.353706088631341009e-02 1.134274127303521035e-01 3.035512480618025172e-02 -1.585494053499164335e-01 8.878261876433714284e-02 5.064149694025651960e-02 -7.091029873737317302e-02 -5.719539032376653315e-02 2.758401326109439777e-01
-1.465410039827905464e-01 -9.008188642287728864e-02 -1.775973123783137486e-01 -1.269067379541456431e-01 -1.484652514095992637e-01 1.188802401840868550e-01 2.197621617746058770e-02 4.301564445986843371e-02 -8.478541884760955327e-02 7.294498706368167384e-02 1.739687419582850725e-01 3.311750932116090673e-02 -4.055010135342285160e-02 -1.518725952959268908e-04 1.379239552659393409e-02 4.540516298756602787e-02 4.521591125429341718e-02 -7.775036501968980718e-02 -1.283229711770589310e-01 -3.002996679016392556e-02 -1.068718902722499697e-01 6.739378531584495902e-02 3.683570059982142070e-02 7.596909817758261407e-02 6.073280164338056009e-02 -3.494330223190000168e-02 7.743825722199176864e-02 -1.354985717826532321e-01 1.018206495093221253e-01 7.070184222560742249e-02 1.205516849555337694e-01 2.768886070235740317e-03 -7.612478513578835489e-04 -9.439700694380429025e-02 -5.875917816135141358e-02 -2.274039027103762212e-02 6.238216789644529525e-02 4.340309582372840758e-02 -1.040232350525654853e-01 1.460901659934897290e-01 -1.310017395814095653e-01 2.151362010084142615e-02 -1.032804839988896439e-01 8.459534492719231191e-02 -8.551724633252812124e-02 -9.516414113830843138e-03 1.725001389947503419e-02 7.712126817241421461e-02 8.513750138524733835e-02 9.904065038085455019e-02 -1.320205510924735703e-01 -1.256928436568661711e-01 1.464821330697647916e-01 9.780137368126742836e-02 1.439957905144581274e-01 8.653331366463695717e-02 9.849702995365453018e-02 -2.720015655252498200e-03 4.987237237607992923e-02 -1.136736087983012539e-03 1.323251447094296596e-01 1.222318383800380659e-01 6.354943079638195602e-01 1.423240037129618329e-01 3.175831978145960549e-04 -1.448116457097192444e-01 -1.993734003077078654e-02 -4.577297719679729250e-04 1.708647467829247091e-01
8.764417082308101348e-03 1.658793652011536501e-02 2.038946267072572205e-01 -1.407982236322765368e-01 2.971424217900648854e-02 -2.310623754448946909e-02 7.489525637054593454e-02 9.093110962036414502e-02 -7.268645558259706485e-01 -8.449370579221830713e-02 -9.440635496535280946e-02 -7.850800501450212743e-02 -1.342427255887285731e-01 8.140732535076748710e-02 3.478916172708801120e-03 1.777580252867871913e-02 1.120287824790258957e-01 -5.099974966407685301e-02 2.258605575781624450e-02 8.340008270191585915e-02 -4.020957865629400975e-03 8.407564337334594295e-02 -3.408609134536561697e-02 5.603069238185036383e-02 3.413277941874774072e-03 -2.331352277769419695e-02 2.447029158975825569e-01 6.871749388180173335e-02 1.036143567964911520e-02 1.788668309685319258e-02 9.345679934680975465e-02 -7.205129477252683557e-04 1.227721969197305835e-01 -1.099007252445563937e-01 -7.364443434470599459e-02 5.940167908197158814e-02 1.123293324508423952e-01 -4.765405924937667070e-02 -6.886118955198163027e-02 1.151379075872287043e-02 -9.462703570033123568e-02 -1.437182273410782252e-01 2.147287378340235683e-02 4.842489134898265296e-02 -3.369114525963354950e-02 9.055301469205254139e-02 -4.000974945178638331e-02 -2.159667703153738544e-02 -2.222363679951008461e-02 -9.123575538235531579e-02 4.789655432438153643e-02 -5.797948151812811618e-02 7.955209738879369386e-02 -4.086716180700741136e-02 1.435666767758453644e-01 -1.625868386077854444e-01 2.163322526566414244e-03 -2.904117364697117107e-02 -1.384882910724508365e-01 -3.856961835187010246e-02 -1.566820178300741273e-01 -9.894062340226685015e-02 2.454745630912514437e-02 2.377025920188365407e-02 -8.106969041320747499e-03 5.529677947141054678e-02 8.014617034810167517e-02 -1.315482832103484663e-02 -5.628369516066593359e-02
1.006369800782472429e-01 7.918897025564645975e-02 -2.510273415888767401e-01 1.448073938130737814e-01 3.165210983482116130e-02 -4.013591448737963835e-02 1.448421535802833782e-01 3.382893766242370259e-02 1.363319199259112047e-01 -2.529371991762948899e-02 2.137904185377154792e-02 1.422041096092483137e-01 1.603032098979799425e-01 -6.281729253109004374e-02 -2.445071344070661248e-02 -3.098648581593003645e-02 2.161867628288611509e-01 9.993013517824887379e-03 2.133184366483056871e-01 -3.466914663690379150e-02 -4.487280142171430619e-02 1.055369454359217918e-01 5.155337178569673745e-02 9.738002219707361795e-02 -2.902686129579619134e-01 7.522005184618828222e-02 -1.028749006925549700e-02 5.195897309593136559e-02 -4.471683897909659033e-02 -2.157159943293354420e-01 1.091723639363850751e-01 7.731990882267662790e-02 -1.816936172384193138e-01 2.727691095003575983e-02 -5.274601705089576598e-01 1.193999147094110258e-01 2.321558626512823520e-01 7.055146285130073358e-02 -2.767844962929545335e-03 -8.886393455744043268e-02 -4.569946122839808889e-02 6.167717008297256970e-02 9.052418275772801393e-02 2.506207594538430519e-02 -1.281292320703239507e-01 -3.457664275167947332e-02 1.149390533460339647e-01 4.296845394876055123e-03 4.582999082055032314e-02 -3.483647230618909518e-02 -8.048160244807729680e-02 -1.110395729910229751e-01 2.028024058116131498e-03 -4.022955095111634821e-02 -5.389443484235087629e-03 -3.621555892427275047e-02 8.591607408639480303e-02 4.421125460131287294e-02 8.522346083045077847e-02 -4.349615684567516294e-02 -1.119473868221690649e-01 1.165593210232576254e-01 4.492063266021869422e-02 5.652740512144677210e-03 7.322851470154005671e-02 -5.284077963083910062e-02 7.308277249760822269e-02 3.978337205837220725e-02 -2.012497309196518980e-02
-1.128205202806482760e-01 -3.411550175793774675e-02 2.353009870639641010e-01 -8.761392343965387908e-02 5.353121067046136272e-02 -3.147387942128899302e-02 -2.338209056290624088e-01 3.470673620687481781e-02 1.094302510539610224e-01 1.171722811201903088e-02 3.616635308818274760e-03 -1.481781738531545191e-02 -1.737178519664608345e-01 -9.297612052303459718e-02 -1.229057164606757319e-01 8.514939104828631034e-02 7.803509926642425432e-02 1.904303621082851505e-01 -9.681695086800386207e-02 -1.181909247042766259e-01 -7.180455936446800136e-02 -2.236996243054860736e-02 8.676167569148315883e-02 -4.983763163953321834e-02 -1.843675608622065767e-02 -8.373865166477015634e-03 -5.733804463677757285e-02 1.040175308009679556e-01 -7.948199336366401288e-03 -1.927764447571076595e-02 7.410137525597616792e-02 2.615563859625812393e-01 -3.711601447585888280e-02 -1.720078163067280397e-01 8.777033033656367680e-03 3.929052937941424073e-02 -6.258737264651902284e-03 -4.735685402346697520e-02 -1.494704203528942066e-01 1.770130523063005723e-02 1.045984521169248394e-01 6.797223310929367823e-02 -5.724516833078912015e-01 2.081757616370433911e-02 2.697996915172923282e-02 8.211687560121829627e-03 4.537562107606978729e-02 6.038462734137615279e-02 4.497796674572158288e-02 8.191649708765892657e-02 5.545652493538531097e-02 1.368624263974417554e-02 6.379455251323583320e-02 3.192961587566289783e-02 -1.434070252231063325e-01 1.024634599949955094e-01 9.666926481607224231e-02 1.009344972727126283e-01 6.196116909371295750e-02 2.906312479021155304e-01 2.407814467721484941e-02 -1.536106541325746831e-02 2.033264586860529174e-02 -1.899797216852901482e-01 -1.346218520036652176e-02 7.156899071346504992e-02 3.874498599803793270e-02 5.790110395317544373e-02 9.168286493095854917e-02
1.229511167777638941e-01 -2.071586308695256562e-01 8.281455567941735374e-02 1.627530095436754976e-01 -1.557002856073821107e-01 -1.031177962610884263e-01 8.551761120815298822e-02 1.398359402428571256e-02 1.317961641207469614e-01 1.024933675586532505e-01 1.016543020698153638e-01 -2.205649953111724418e-02 -7.625004595871390234e-02 1.435720161391478567e-01 -2.624783317577339403e-02 -1.598539928263616530e-02 -1.443338963745712522e-01 -2.103498054508095017e-01 1.370490672342849006e-02 6.113762097553426117e-02 -6.454343391823234855e-02 -8.209081394080705585e-02 1.259988353395479765e-01 -1.322195198234060731e-01 -1.514059195030588723e-01 7.288349200846330755e-02 2.225546872063086101e-01 6.852197122778888594e-02 1.637766003819846328e-01 1.245465142298231714e-01 -3.265827297040784644e-02 5.791499689410203183e-02 -8.920484890883659257e-02 1.418373627023359618e-01 -7.913661571613553325e-02 -1.360547553233419360e-01 1.035544554217329438e-01 -6.452990603681616442e-03 1.232435681720461390e-01 1.338804431049813448e-01 -1.044010808113512295e-01 -1.741785679285854649e-01 2.694717242090748366e-01 -9.727604217889873617e-02 -6.266064492636691519e-02 2.084802231114455950e-01 -1.106679960263709239e-01 4.772432787441562019e-02 -6.647530905243646815e-02 -5.250357267363983151e-03 1.443036464814317354e-01 1.638919639611582657e-01 1.071547494239226961e-01 1.073065809348945632e-01 6.783625243186534003e-03 -7.371519180618742173e-02 2.642802856019534352e-01 7.538009465980030632e-02 -7.043802586026556845e-02 1.193481015696009895e-01 7.420111154709673092e-03 1.714493517959884972e-01 -1.411874779632222299e-01 1.546144492685737615e-01 2.190715367959150325e-02 -2.084300773628264269e-02 -3.044373702107039739e-02 -1.563569337532192127e-01 2.847507298358803104e-02
2.159802889414552673e-02 7.440735047982479505e-03 -1.475319181046475803e-01 2.015965914032160841e-02 -9.294995435055762589e-02 -4.600190246366046148e-02 2.042000010055091130e-01 -2.514814512880256953e-02 2.111153270806417903e-01 -1.274024032315053401e-01 1.530760325732494764e-01 4.833077332819329941e-02 -2.941133348246103424e-02 -6.745034588262080466e-02 1.182907415062736840e-02 1.003164958894999653e-01 -4.756342884539201121e-02 -1.782591420600263821e-01 -1.914176509374239388e-02 1.872204692442172858e-01 -3.294744803335467043e-02 -8.959893400077637016e-02 -5.654831883316868701e-02 -4.292455815434902122e-02 -3.323423629931335221e-02 6.839334562486776292e-02 5.638875571049255936e-02 -2.067341204789493458e-01 -1.255207467718210124e-01 6.512634841542992714e-02 -3.606250461490324855e-02 1.465288017216513083e-01 2.290267237683404067e-01 9.324707227474772486e-02 -1.581371771603757304e-01 -1.140988613546933123e-01 -1.099102047954614303e-01 -1.455655810994600230e-01 3.422109476402740436e-01 -5.995020579241399500e-02 1.359647145634471643e-01 -1.146536830579834576e-01 -3.740552251353612689e-02 9.853799899571559495e-03 1.866295509494496074e-01 3.323097914549301424e-02 2.661056159798120269e-01 1.563343546328477829e-01 -8.143425812260733643e-02 3.828159132682439070e-02 -1.516144569371776496e-01 2.835312900130367297e-01 -2.768531288597588652e-02 1.143520042047714222e-02 -3.673378829451695582e-02 -5.463977619437868777e-02 1.156853724034359598e-01 2.246078143797960169e-01 -3.826580617606488433e-02 1.239284282054854691e-01 -5.192234621414219126e-02 -7.373691070332701047e-02 -1.266677434448856138e-03 1.232745320942200962e-01 -3.382162840670255993e-02 -3.166271467473649737e-02 -4.103821961796872558e-02 2.608786512638234731e-02 -3.590660713586626279e-02
-1.626319684599531468e-01 9.961424983923093668e-02 3.071894906526494856e-02 7.618569998373221630e-02 1.241660140647066202e-01 1.686305830822789065e-01 -4.781245615681306571e-02 1.233635615530385560e-01 2.109401410834241611e-02 4.720001574753113910e-02 1.348391046503939483e-01 -2.627627941486644914e-01 2.021566041778468659e-01 -1.733724674781873809e-01 1.379252645110878861e-01 1.479796152245722307e-01 2.352046671572169054e-02 5.943780483215738153e-02 1.605899088019742404e-01 -1.241806598192499722e-01 1.502216432557673502e-02 7.594778253268918977e-02 -1.483439949134416139e-02 -1.148873746548594726e-01 -4.691465339412922986e-02 -9.633877713756125449e-02 -3.303293246103337910e-02 -3.781566407836075769e-03 2.429411173188885525e-02 1.089245421250672335e-01 -1.138906233416503849e-01 2.050888734228971388e-01 -1.305967727946287515e-01 -1.528700556229738716e-01 6.910207879234493700e-02 2.193204589981314137e-02 -4.891946324296398210e-03 2.016305508644026523e-01 -2.125775441267542809e-01 3.464677704071199987e-02 7.560309941346662899e-02 1.495590393519979355e-01 -2.543655102780812416e-01 -1.678714280872494261e-02 2.963200135312456587e-02 5.165777093171676493e-02 9.764944476265388640e-02 1.044154090725507439e-01 2.274582582501279149e-02 -5.741756952309347989e-02 2.040301040022687515e-02 -5.052241970889094491e-02 -6.435796685813147122e-02 2.527451389734464704e-01 3.822472100529620415e-02 1.939377467552546447e-02 4.282447654499117046e-02 1.288255750077261716e-02 1.049284265102019137e-01 -1.055131867141971373e-02 -6.560196210719593246e-02 -7.496259154886951437e-02 7.497847056644324493e-02 -1.172374332386987017e-01 -9.999333290869165392e-02 -2.253833296006871600e-01 -3.442575340834027608e-01 4.921491653871878577e-03 -2.837004968307582989e-02
1.653406290267386558e-01 -2.181283884906752568e-02 1.216826310288880303e-01 -2.915081964014244395e-02 4.131943100741856945e-02 2.516907694344109638e-03 -7.482275729236499695e-02 -6.899363821173989941e-02 1.023400790062912458e-01 7.905284452747261825e-02 7.128028110354907299e-02 1.072631460586871144e-01 2.905447131233523592e-02 -2.685512188777288145e-01 1.831541994540544227e-01 -5.228895949041563462e-02 8.633511412240463950e-03 1.342675027630981233e-01 -5.961524593791623500e-02 4.904546450170506333e-02 1.192937924083195544e-01 6.544372122540038916e-02 -3.806356734983522977e-02 4.597073773970308808e-02 3.245011191799659911e-02 -7.256313834736158319e-02 -1.168065025789711137e-01 9.541335472394399386e-03 -1.447922787208595907e-01 6.324546197561432825e-02 1.778887159450395494e-01 1.291167540153500548e-01 -2.172477406768677510e-01 -1.154921319229299109e-01 7.250041074786474360e-02 -2.224820960233341027e-02 1.449695167722384603e-01 7.305607788212909424e-03 -3.733556089048092885e-02 -1.329548387825311706e-01 -7.825993612502205043e-02 -2.004456552014644566e-01 1.152488278430043728e-01 -1.929250652794769760e-01 -1.339482221224539971e-01 1.466343865616042130e-01 -1.226478736159661576e-01 1.123222438277064333e-01 -1.642754245750696063e-01 1.417926885315638486e-01 -1.123314461799689891e-02 1.381243479004444774e-01 -4.181408503956542469e-03 -8.802652115931838828e-02 -3.825152492114811120e-02 1.722422515910237983e-02 3.032193275789149892e-02 1.469467374744425625e-01 1.733827945849545638e-01 3.256225438432928249e-02 -7.355685879831194707e-02 9.793184564042715923e-02 1.538301503517566782e-02 1.154134219685785806e-01 2.688134186195308417e-01 1.758151240412894889e-01 -4.454813791375306781e-02 5.720035857669104884e-02 -3.544804542644730549e-01
-6.375612896387254647e-02 2.581357366684260482e-02 -2.147030196351943157e-02 3.700445333477288268e-02 1.380270969999253805e-01 -4.285325704729788243e-01 2.183306203969246490e-02 -1.127829024220728948e-01 -1.981653956541793715e-01 -1.813320193524511070e-01 1.093706406532673481e-01 -2.850719086527343793e-02 -1.625806656618757340e-01 4.913012920716839926e-01 6.073179494337728468e-02 1.008300946557312040e-02 3.963146313985795727e-02 -1.312390396809620620e-03 1.015267178642174084e-01 1.051037596213180852e-01 -5.618719330716735044e-02 2.276197901593923854e-03 -4.199281143424744844e-02 5.455037657176131649e-02 5.536748399291148946e-03 1.405625603984986781e-02 4.021905601322390417e-03 -1.028091241614814411e-01 6.191254846437893068e-03 -7.414828464779629758e-02 -3.324730910727826533e-02 3.920738099543507119e-03 3.216006627264069717e-01 -5.878722919274974139e-03 -2.230491911534959737e-02 -2.341616951984066761e-02 7.542003380519575473e-02 -6.707039956842152095e-02 -7.023597112355536680e-03 -6.040296118089383964e-02 -3.070744353706027219e-02 -7.427296824680071352e-02 -3.361057177990169759e-02 3.002243228210441789e-02 -2.487923489679502373e-02 -2.050428400822752739e-01 3.826319356630406704e-02 3.220790406928011190e-02 3.065127112400043916e-02 -3.845576445779530506e-02 -2.057474110457699346e-02 2.103219872394800072e-01 2.791205712373376890e-01 7.808638479376049657e-02 -5.185122663279553845e-02 -1.211249159439605622e-02 -1.211715690524702987e-01 6.645553934884040892e-02 -1.172197232234015729e-01 2.134011164202128871e-02 5.432156364884192790e-02 7.827456665476252573e-02 2.897067225956600350e-02 -5.469667130823313572e-02 9.094798214864777131e-02 -2.516230329835480051e-03 -2.477865048118670435e-02 -4.844095822796871259e-02 9.654428761741140619e-02
-6.829676596971943903e-02 -1.024150493950126833e-01 -6.143915853280139394e-02 1.034261371119073458e-01 4.818919551396150247e-02 1.524250048657279921e-01 -4.960715211294867283e-02 -1.894805937894875406e-02 -3.099221740167422065e-02 -2.301306047450453474e-02 -8.708395661599086998e-03 2.650083663924933733e-02 9.084538215398932359e-02 5.284461476647505512e-02 4.209432114393372418e-04 3.385253791249481087e-02 9.147180773120133779e-02 -3.191680114848375726e-03 5.488209063688114647e-02 1.014195331411718443e-01 -7.584897831039205673e-02 -1.096498938927207983e-01 -8.269589484463141238e-02 -1.149980641804255049e-01 3.612152084813474717e-02 2.404524480144223236e-02 -2.818831658551011060e-02 -9.331382642211042203e-03 1.177842768262187673e-02 -4.602965585841137935e-02 -1.475555689563209580e-02 -3.808371916650576949e-02 1.595149339119050075e-02 -3.767014781038759835e-02 1.154677824208251088e-02 2.091036962353792217e-01 -4.630493300840680948e-02 4.453044750860014889e-02 -3.916766484424814843e-02 -1.955146993548873002e-02 -6.844839152632842261e-02 -4.832302636235743382e-02 -6.444062487256177647e-03 1.007796797067580033e-02 2.321314408547005270e-02 -1.075717400493678699e-01 1.640580636023780681e-01 1.213936989843703157e-01 -4.719021266464824838e-02 -4.266610243835792377e-02 4.408210878753966375e-03 -1.094199699608030679e-01 1.682494321734485654e-01 -7.670790539222391846e-01 -2.019468143674513494e-01 -5.387369545608839544e-02 -1.691326181247553573e-01 -8.483993413894894142e-02 3.848081938097568794e-02 9.307775322951428523e-03 -2.730902339590774580e-02 4.252558507741219761e-03 -3.980124769463948969e-02 1.971138315233594493e-02 -1.387790785002427640e-01 7.838772034492547114e-02 5.474989676942861559e-03 8.246924983470234338e-02 7.023101461205227998e-03
-3.900833030290893418e-04 6.528628745999534577e-02 -1.782779273913870930e-03 3.135309153868803128e-02 -4.247816974671977247e-02 1.037445480063402996e-03 1.727330157095582353e-01 1.484546660656242689e-02 9.702740506060906350e-03 1.891097297205624264e-02 -6.520497511320649808e-02 -2.814883745137355606e-02 4.507504819344619607e-02 -9.194084207685182530e-02 -1.259752250303506349e-01 6.117673759753986668e-02 -1.590276276742938130e-02 -2.707604847577196883e-02 2.817487046310284890e-02 3.855734909061798478e-03 -9.551376793075086816e-03 -1.294971613793127231e-02 -1.473948537794588474e-02 -1.575142023995398585e-02 2.775189432758368158e-02 6.882567563732384930e-02 -1.683068811908590770e-02 -1.064260413830829533e-02 2.799743322550455465e-03 5.335499795486285668e-02 -6.645444492664435987e-02 -7.311157046471805643e-02 -4.007900240030351502e-02 5.304055107455985310e-03 7.338676122830582738e-02 1.711940673790214029e-01 8.776674815221928092e-03 -6.142045838467461577e-02 -5.111952175097631175e-03 9.255610948661866996e-03 2.866195573066117677e-02 -4.805799131260968249e-02 1.370965450294306665e-01 6.988050938274655011e-02 4.112384265056959892e-02 1.067544946602917433e-01 2.578654543298016660e-02 6.042588033629257144e-03 -1.518102554129852934e-02 -7.758072111656051650e-02 -8.652495552869489126e-01 -4.021135904982867104e-02 -4.212102080237822149e-02 7.843738816179522677e-02 8.374624655114031035e-02 1.043254720838840063e-02 4.387645725788555384e-02 -1.612802151549710961e-02 -7.901801748375023027e-02 4.379054436753497537e-02 9.484674987264780921e-02 7.419207108154029714e-03 4.867600907052175262e-03 3.119125736138978616e-02 -1.170146597111544479e-01 8.104396601265995148e-03 3.806642526293936568e-02 -3.408086299334486292e-03 1.348493744476951806e-01
-3.969807711610773976e-02 3.316941088244444724e-02 2.404074549226108484e-02 4.710051731831075596e-03 2.671650457107170307e-01 -1.280827765379551619e-01 -1.065668687678216070e-01 -3.917426546057230230e-02 -1.881804603640196971e-01 2.362211798808492857e-01 2.794871194922345786e-02 3.740143144218407642e-03 -5.133008299461236379e-02 3.083790094923741232e-01 -1.306885192510954738e-02 -4.346167930973363763e-02 -1.911987158174353330e-01 -1.869246714172777615e-02 1.860323046863444629e-01 1.329993432266218106e-02 4.831733891309483026e-02 5.311026176533649445e-02 7.158748006484459692e-02 2.436139216649588213e-02 1.726631906742283340e-02 4.618617987174040984e-02 6.556362841849112943e-02 9.669084833727231709e-02 1.180827253880815941e-02 -4.758421321550515559e-02 -5.971668916698413820e-02 8.929063001995318771e-02 -1.346263899801301289e-01 -1.747220801287121400e-02 1.981786907958512853e-02 -3.120029081973681173e-03 6.088966226574210605e-02 -5.589293010590534738e-02 7.550999499667744586e-02 3.003311760021284971e-01 5.863678192511586479e-02 -9.552984426430500761e-03 -9.470423971432113952e-02 -4.711462370151372342e-02 -1.279883916431031887e-01 2.209901099148899595e-01 1.338386210215606054e-01 7.228769435667549426e-02 1.379054917798999969e-01 -2.242438858484697983e-02 4.161799027931715189e-01 2.659409113721198856e-02 -6.097449550481463809e-02 -6.561621806015441143e-03 -6.345680077173389277e-02 -5.436517684996187982e-02 -1.416856774501206728e-01 1.300650633976555177e-02 -8.835263359886834367e-02 -3.787687785553041364e-02 1.453798650673330172e-03 -6.550908868622852717e-03 2.340156367990295083e-01 -8.354917144832794962e-02 -1.057848346093998998e-01 -8.073821051024859807e-03 2.161473196260373653e-01 -3.647689723271366896e-02 1.107676209586984234e-01
5.472360355863492565e-02 -2.154204466478516211e-01 -1.488948321516352091e-01 1.753375182788013964e-01 -4.761211623561988071e-02 3.291420140554256191e-02 1.575977966616553400e-02 1.285446612947477862e-01 2.390474469480131647e-01 2.632041003769980958e-01 5.319632693118867689e-02 4.987817820662850121e-02 6.035996548707185660e-02 -1.208359086236889257e-01 -8.025778301913194523e-02 -1.909832049324441394e-01 -9.771439958957428562e-02 8.109135719595900182e-02 -1.416683098168566579e-01 -4.883649071168689321e-02 2.311522423682338678e-01 6.473152507373730949e-03 5.801481286393867648e-02 -9.245085412726566920e-02 1.245168866630956689e-01 1.320163224290629711e-01 1.279430052435102383e-01 -1.015255622688564230e-01 -9.240385436511629191e-02 -1.864521179192278263e-02 -2.694954220612045051e-02 -1.352386794076392562e-01 -1.607336935559683377e-01 -7.012768148941703195e-02 -1.483898315484235286e-01 -1.514007985723487366e-03 2.241761025538038243e-01 -1.292190492109946132e-01 3.765092127286437385e-02 -2.252432481474262171e-01 -8.520482430809413199e-02 -9.067464724490890970e-02 9.073833986093450543e-02 5.118656823429557079e-02 9.396535461003857614e-02 1.072149467455987271e-01 1.556880544161486912e-01 -4.998081782048692870e-03 1.088613633367103706e-01 -1.694462656748082219e-01 1.480330114822122345e-01 -1.658544273754682663e-01 1.534528207847656589e-01 1.417602935384351948e-01 9.633567073231506794e-02 2.387570069819841545e-02 -1.354228868656194296e-01 9.048271263587721880e-02 -6.037430067050980620e-02 6.715762693061051725e-02 -1.630322061625298635e-01 -4.071858050045022021e-02 -3.666941806505197299e-02 -3.701706878222976727e-02 -6.723356475053976489e-02 1.612081953207419316e-01 -8.258334826260409212e-02 1.116271729978355644e-02 -6.180865014801889545e-02
1.349657103919589818e-01 1.613651078340323508e-01 1.879347297409380002e-01 -1.884029934292721226e-02 7.049605009811056588e-02 -2.790712900447032130e-01 1.844666082846464494e-01 2.524645661493257059e-02 8.742813185941912535e-02 1.655231125522578506e-01 1.490410048828844924e-01 -1.483426346853279620e-02 -4.984215414185739351e-02 -9.773435247890785438e-02 9.910031011224679220e-02 2.062286925581212349e-01 -6.105114260302853951e-02 -1.607327007114755235e-01 4.683225314702604142e-02 1.264735468107064387e-01 -4.557499819446175771e-02 4.318121154679349649e-02 1.454031332596374959e-01 -1.452884593700702887e-01 1.252932648901214190e-02 7.148965771533892510e-02 -7.393203416672346207e-02 -1.320180113368890351e-01 -2.366682421928126001e-01 -1.368017382278362108e-02 -8.311299706292440623e-03 6.820906870508391950e-02 5.838314218248886328e-02 1.063466184209236332e-01 -6.774138209449293013e-02 1.273205448707828980e-01 -1.699367865958312518e-01 -8.408856529184663420e-02 -1.208110812101366310e-01 -5.455699271338269180e-02 1.783852409784761686e-02 1.720850304073283377e-01 1.018959680446138300e-01 -7.691426768149213500e-02 4.570189428738031384e-02 1.066070685568083209e-01 8.107543742024826694e-02 4.970830783020338539e-02 2.825890031853849765e-02 -2.571073700535104339e-02 -1.679635837194243531e-01 -5.081537716473570609e-02 -1.848908263559346718e-02 8.810435476433035873e-02 -4.214502055663905955e-02 1.390363022820496341e-01 2.576746103444781388e-01 -1.712812354386762381e-01 4.552615479127252590e-02 1.891353540277583914e-02 1.663779834039940952e-01 -2.095101729512952038e-01 -5.279423827406126701e-02 -1.413930816708549587e-01 5.423683464187906318e-03 2.147654573369941755e-01 -8.764242581949157479e-03 -1.524733221143410034e-01 -1.282066917269962247e-01
-1.233548590040043844e-02 1.606038938057810228e-01 2.873972898671482423e-01 -1.123343465070054670e-01 1.008366964799078808e-01 -2.773944447116869286e-02 8.813322646662559434e-02 -1.728234296699999728e-01 9.780541662921239665e-02 1.085316077788273659e-01 -1.119027416631958038e-01 -7.310147538140081280e-02 4.289538198916011125e-02 6.625577643156005392e-02 -1.586906031588654689e-02 1.775502987353953233e-01 2.456020668211150206e-03 4.271000221776440758e-02 -1.224968301341597052e-02 -2.008066013849016396e-02 5.770903043744810001e-02 -1.149255034742766302e-01 7.046298994554862916e-02 2.873008142898161310e-01 3.395180963979952532e-02 -1.223313663125162876e-01 -4.321759381350557400e-02 1.512741862946553884e-01 8.019590289966964380e-02 -1.216157039183334843e-01 3.634960915878361620e-02 3.859223150913822231e-02 -2.738847131736121127e-02 2.152223571691820048e-01 1.803115863564617050e-03 9.576565391074304268e-02 -1.347228691794938836e-02 2.374868037757550399e-01 6.603885696842370923e-02 -1.804989027890706310e-01 1.988553128961925431e-01 1.578860633540768443e-01 -2.602265683524090378e-01 -6.685241384940115994e-02 -4.519122753365344136e-02 -9.150472919344337930e-02 -2.120428107811687668e-01 -9.676385631824649045e-03 7.976431927174379780e-03 -7.629793036638309045e-02 -3.997354136653769735e-02 -2.801197759509504656e-02 1.303631501062253450e-01 5.063461160367648678e-02 -5.926932445980467867e-02 1.707821511045110874e-01 2.414679229290238871e-01 1.169180643181772228e-01 8.799058713728427628e-02 -3.948621307534463248e-02 8.535398097149117513e-02 -8.089280594211616104e-02 2.165972665490399629e-02 -8.398982604716023759e-02 -5.737723198658258722e-02 2.108845614053374840e-01 1.545594606547693595e-01 -5.671462552064523988e-02 4.260655346873733207e-02
-1.201119591700875178e-01 1.791613183177198296e-02 -2.220103733974305993e-01 -1.817514576128737847e-01 -1.240310394107764225e-01 -6.109837062541314395e-02 -1.375024803731236256e-01 1.391522281977141950e-01 4.717829409041408850e-02 3.381606129796153187e-02 -1.880749701854890210e-01 1.904421820560767975e-01 -6.340241723961324849e-02 -1.860537643907282934e-01 -2.995578233379960209e-01 2.359342577745099645e-01 -1.542817363550187115e-01 -2.017156435140987913e-01 -5.233175341478987080e-02 -6.454534973441693191e-02 6.924953449615264822e-02 -4.270592774651393864e-02 2.178145738822405073e-02 -4.487492665172377292e-03 7.791468067934935460e-02 8.476128916534103608e-02 9.952809487970677715e-02 -1.510482954238640818e-01 1.390950654472173642e-01 1.814381718676054689e-01 1.104058100268838771e-01 4.493325980146069959e-02 -1.726823889736505968e-01 -6.465782106368803128e-02 5.225729342880247770e-03 -7.282649114625920628e-02 6.217563657035340800e-03 2.461590906051045954e-02 1.000921215524309543e-01 1.478289003631184650e-01 1.824080465254753966e-02 4.704063507544999773e-02 1.187503147865072994e-01 1.156605616893005214e-02 -1.775757629696606554e-01 -4.515066170079486824e-02 4.147797167603316931e-02 3.537471047031334054e-02 -2.600673001131764001e-02 6.879173775327040996e-02 -1.544867818489930877e-01 -1.260057467648974597e-02 -1.641272016729998784e-01 1.485241012805350036e-01 1.342281172188132810e-01 1.812900087942440619e-01 -1.835545912031229243e-01 -9.348636150668343525e-02 -2.576597804357991933e-02 -1.352945139974393585e-01 1.519800224014098977e-01 -1.162404719255021868e-01 -3.251383380272518386e-02 -4.897168939824803058e-02 6.638144131725245978e-02 7.715392421651398602e-02 5.179875509569167175e-02 -1.091724347651965715e-01 1.209223830658714971e-01
-2.402593901840877760e-03 -6.512563841760748984e-02 4.301315319474736248e-02 -6.588068181970985204e-02 2.192974229493325489e-01 6.832987705365162201e-02 -9.894565717803530114e-02 -6.267822651520053856e-02 -6.579833190485268046e-02 -2.175876924206770341e-02 6.094988671330375807e-02 1.041759932078704098e-01 -1.620265598879262400e-02 2.674991636448440513e-01 1.810079293335875583e-01 -4.918473852236433103e-02 -2.482628366106650816e-02 -6.477863966979864607e-02 -3.827483175020289508e-02 2.263310759831420049e-01 1.679098815209300599e-01 -5.939108454785044927e-02 -1.397586032095814168e-01 9.449713742380118353e-02 8.007845222497822490e-02 5.493026589074100074e-02 -2.339841291228449138e-02 4.964273213534247525e-02 -2.164526383155138956e-01 9.761757712546946519e-02 6.307202796861767491e-02 -1.869455956711331968e-01 -5.014386673052578097e-02 -7.354886262094642579e-02 1.432924515475585692e-01 -2.349173934001261288e-03 1.803849276679108382e-01 -5.728913550631996136e-03 -2.456831260748517376e-01 1.339885034204481469e-02 -5.448566092642815467e-02 2.717186346967803146e-01 -8.875712613481637203e-02 -2.746660057802069801e-02 3.552509848055249858e-02 2.644324244867206006e-02 -1.296146953783346156e-01 -8.534413072141217027e-02 -1.988191056493948394e-01 5.329863389747945684e-02 -8.018655670342714203e-02 2.112313237509178820e-01 -2.262953068278450441e-02 2.749932203569728784e-01 -1.229031742837694702e-01 4.126739932706048608e-02 2.056268574803741533e-01 -2.612334922784404975e-02 -1.494962949651649220e-01 2.578269230797851641e-01 4.848216160104625548e-03 -4.263415574303735384e-02 2.303751690322023218e-02 3.385914072592863255e-02 -7.200144795180853097e-02 9.795655184695359341e-02 2.406261681412041539e-02 -3.346504301112927099e-02 8.939100117529179268e-03
1.945292469756518608e-02 3.777468601591860153e-02 5.674651305920492411e-02 1.177223273735087533e-01 2.022174876616725583e-02 1.520613730327021254e-02 9.037205471835768611e-02 3.283742126571145142e-02 -9.286605850678522622e-02 -1.395006026327909043e-01 7.700977119694757400e-02 -1.741864340458885718e-01 -7.394074079495665738e-04 8.326336284583439606e-02 -5.752672052603160363e-02 -2.921280852342810208e-01 -3.222055578167698497e-02 -2.608245693248532060e-01 1.073465580041198242e-01 -9.912605616164045508e-02 1.117176817072323830e-01 8.020305687045221898e-02 1.838167658743628322e-02 -2.092823327720765569e-01 -1.622872652046190300e-01 -9.095999133898804989e-02 1.603372724287009943e-01 1.803244780917074019e-01 -3.301749894002661140e-02 -5.270524802595914771e-02 -9.431166140902953743e-02 6.208290094417056454e-02 -9.869606293184360335e-02 8.819241276422376541e-02 1.075693182944566090e-01 -1.238592560442836749e-01 6.043307867754307144e-02 8.291513112936105268e-02 -4.577504737726771633e-02 6.068389744486681753e-02 2.421860502554060504e-02 -5.523590623259473425e-04 -6.276043478177205370e-02 -8.964984946416461320e-02 -1.800021387058610423e-01 -1.232934679027256619e-01 2.909355121402240618e-02 -1.143060984357501669e-01 4.028003989356875869e-01 -6.787618885504113908e-02 -9.019991230941737728e-03 6.976498319386698066e-02 1.827566382955987390e-01 -8.712124896660178308e-02 -1.934922049556608500e-02 1.872543080088766576e-01 1.750149130539289388e-01 1.156042382214809566e-01 -2.038269758879393823e-01 1.069408692669261696e-02 5.994559073131595917e-02 -1.554166153256689997e-01 3.643109489262567197e-02 -1.232115353105563554e-01 1.002277558766884319e-01 -1.222636089753224992e-01 6.218498992670648540e-02 6.901746543871614681e-02 4.233601777566935176e-02
4.136499214858049139e-02 5.155287971251145546e-02 -2.683843753993420816e-02 3.036880335301350015e-02 1.943363647755863843e-01 1.509526900121063997e-01 -9.111988403944860926e-02 -6.888108002944115515e-02 9.315530182345554966e-02 -7.247384517822129391e-02 3.588521858537691012e-02 -4.164451333673195588e-02 1.357208529572335454e-01 -7.696897773117464259e-02 7.845858038709581372e-02 -1.495466934560596428e-01 2.348359227055300726e-03 -1.607597356259320431e-01 3.250828390021458930e-02 6.742218375151093346e-02 1.529288220940058507e-01 -8.381228245474445226e-02 -6.641287517048140472e-03 -2.899140505707120119e-01 -1.031027036507392997e-01 -7.911524298499528207e-02 1.233790590455322161e-01 1.754769034599392985e-01 7.110469490601492581e-02 -6.307237751297085915e-02 -5.483842718102054786e-02 -2.335854699313681671e-02 -5.907100684704034294e-02 -4.243318476459693317e-02 6.969744909028549595e-02 2.954865613134936564e-01 1.035495901891741663e-02 1.828382313328846820e-01 -3.267112895342673407e-02 3.482712390718285811e-02 -1.760474594974495710e-01 -4.650504233933298371e-04 -1.011832030374775482e-01 3.231825180458035296e-02 -2.296416518425008768e-01 -2.150469888246520772e-02 2.006289919097588303e-01 -6.297358406454035828e-02 1.491295949758829620e-01 1.427971327974771332e-01 1.286272648288094012e-01 -2.004773754949927544e-01 1.628827711220371677e-01 -9.161076768131165213e-03 4.551245455138317603e-02 -1.327100935819359173e-01 -9.682590196443127684e-02 -2.509902677292723261e-02 2.540899857889909463e-01 1.414191332096350340e-01 6.203703262045127259e-02 -1.533483636827389363e-01 -1.508677124318899276e-01 -4.481674915903346990e-02 -1.321694169595604151e-01 1.062510140494018346e-01 1.387916899481548283e-01 1.251808797710600163e-01 -9.894219120487266969e-03
1.141008534855729589e-01 1.639785095059362874e-01 -7.506156149558211588e-02 -3.521399745774775325e-02 4.693765413982350226e-02 -2.487987116020427304e-03 6.499502001608739588e-02 -1.736699603953204829e-01 -2.720080139869098246e-01 -1.767026474968304561e-01 -7.160852112257594382e-02 -7.208992119108942331e-02 -1.847187049980974494e-01 1.274681344078510137e-01 9.104701461939644636e-02 7.993756222550095492e-02 -1.265007382548493653e-01 -5.710938985022450537e-02 1.390945549106308021e-01 1.458624846527691032e-01 -1.479162160601595610e-01 5.622974539879101868e-02 2.216144109263636364e-01 -1.702478681054231391e-01 1.065294934416147754e-01 1.982336997785492383e-01 -2.664904797893248925e-02 -6.024535970189427020e-02 -1.963676515044882609e-01 -2.421016565670921494e-01 8.469405314900023407e-02 1.192607314110543937e-01 3.867930231477100661e-02 1.012401959683321556e-01 9.535125574686381666e-02 -3.665049321217209860e-02 4.347036460419178433e-02 -3.041031263290422480e-03 2.060335351059372211e-01 -9.716136358394100725e-02 1.041227435450925859e-01 -6.662420085158946015e-02 6.569993717703719038e-02 -1.225861423013829693e-01 1.365831722705586893e-01 -1.863198715153237262e-01 -1.497854660967281315e-01 -2.103256973546803188e-01 6.748956837663071251e-02 1.194716761505752317e-01 1.035126886905321092e-01 9.347388204826546920e-02 -8.395303114497716657e-02 5.474737301608007672e-02 1.054096701755900395e-01 5.654670035650818938e-02 -1.076981147687886553e-01 -7.246014383691400107e-02 1.183723984900255516e-01 1.303390079319183964e-02 6.282422944777574236e-02 -7.557156685509235083e-02 -6.485443993542908125e-02 1.546332112177051937e-02 1.520616224992309973e-01 -2.725802889942269269e-02 1.737205861877719471e-01 -2.047822352041422586e-02 -8.116449240688204669e-02
1.062606384066195828e-02 -1.770330767966040997e-01 4.153210702321598335e-02 -1.458787909901833324e-01 -6.410992227419849698e-02 5.608070100686540771e-02 -1.786235606616622118e-02 -3.229547169268516538e-02 1.075590168823413600e-01 1.012408548290042766e-02 -1.328762522788254352e-01 1.173720599201723627e-02 1.169417482618872878e-01 -1.224602248020542766e-01 9.453765208070519233e-02 3.717630662822022183e-04 -9.849519950399260315e-02 1.538656112641685891e-01 -2.386343829185288978e-02 5.879414387153650973e-02 -1.481612722803592186e-02 -2.176603503486215507e-01 1.432514155428976088e-01 1.206449672478325692e-02 -1.125440554499345432e-03 2.120502849065839576e-03 7.603665680675963934e-02 1.244514274789692565e-01 -1.067714894489061456e-01 1.852041379055210102e-01 -1.349121810812916877e-01 8.615521803323986094e-02 -4.793366222707077379e-02 2.144006151606698829e-01 9.478159986987517993e-02 3.208397736103260622e-02 5.370598313936061040e-03 2.125298970729396775e-01 -1.433301258017041085e-02 5.368518833487665454e-01 4.109132796512779406e-02 5.436633895521717635e-02 1.559096287365822030e-02 9.307259015245319955e-02 2.327553347375592441e-02 6.011509058061183242e-02 -3.802944988817533178e-01 -8.404735170307008063e-02 7.659202792893467227e-02 7.300001355783333756e-02 -1.359193602474000583e-02 1.339709743082407312e-01 6.673739819318729762e-03 -4.438796114392107306e-02 -3.829055394551688675e-03 9.755927319705638007e-03 -3.850461190067776956e-02 4.068038348480941535e-02 -1.968999783299986150e-01 -2.839379254173910253e-02 4.617385863437226817e-02 1.224189133431411169e-01 -9.489493692905910660e-02 -5.554675226231663848e-02 -2.513266023904364016e-02 2.888971081855257542e-02 -2.602277306323661291e-02 -7.445620459975473525e-03 -6.874482414923441254e-02
4.598495797740023705e-02 1.220012705306888628e-01 6.948831587971748824e-02 -1.347893941556422559e-01 -1.129221423096352789e-01 6.525960707348943401e-02 1.589706255383120936e-01 -2.551580963694902171e-02 1.559137004852915454e-01 -2.291448282519639810e-03 1.439851036610966528e-01 -7.439823523697490504e-02 6.176885392204865821e-02 -1.726773310133541128e-01 1.616488394963768449e-01 -1.719491000203845765e-01 7.866262401756375644e-02 6.977912049432402619e-02 1.882232347959827135e-01 1.015393657416577972e-01 2.248463883781342265e-01 -4.448892126729189940e-03 -2.429003940555199137e-01 9.916968750447702208e-02 -7.871250072475327597e-02 -1.453423123775860609e-02 4.200969235570021533e-03 -8.518883028303567140e-02 -2.099139592477615446e-02 3.655046974733094922e-02 -1.522000510904593928e-01 -1.889730562613023968e-01 -2.379179628893320353e-01 -2.643113755589083791e-01 -2.731810268630334090e-02 2.110717924135643297e-01 -2.519343046527691699e-01 5.211552605795169435e-02 -5.388153917370512580e-02 -2.078762286502909284e-01 2.877330521869885666e-02 -6.850395733910570606e-02 1.037811540567864510e-01 -1.612227233968965140e-02 -2.346312615844626734e-03 3.530174642674927671e-02 -7.878890856707551626e-02 -5.938421949698716173e-02 9.367042752344485745e-02 3.032556269024109727e-02 9.877236229175137550e-02 1.716253002078871048e-01 1.653786302437706968e-01 2.436674185582334007e-02 7.264651809775958535e-02 -2.218259442519696090e-02 -4.723347382741908268e-02 -2.022176090471742294e-01 -4.959634814456176377e-02 1.005215836325713680e-01 1.482076998925182798e-01 1.248836797694403838e-01 -5.195814338653196446e-02 -3.761624980835414495e-02 1.459559053180972850e-02 -3.588478497470092010e-02 9.286054886700990940e-02 8.764349856752119694e-02 1.312655499439746298e-01
6.764880432108014152e-02 4.653157188536818228e-02 8.050073656650061360e-02 -2.621169124600454814e-01 -1.048995794878228721e-01 -6.621571181164373487e-02 6.210914157995104518e-02 -2.847395441744169503e-02 1.051038382302397489e-01 -7.929871241055191922e-02 1.522955567587613683e-02 1.237034436520898922e-01 -8.758638721460748622e-02 -1.680743546815617051e-01 -1.602396855354382976e-01 -7.097502793489379735e-02 3.693360515190684951e-02 6.827121413010603379e-02 -8.967162455922689235e-02 3.326133803855868543e-02 -1.563908947865865762e-01 -4.257138285474411366e-02 4.625813952311685906e-02 6.808425706872665850e-02 -1.952146475636363024e-02 -5.004606958118393983e-02 1.112710756225568365e-01 -1.253927909687454698e-02 8.105197019298737704e-02 1.618657428519050256e-01 -4.348381394737933087e-02 9.226323434596107875e-02 -2.720201734632783364e-01 9.971431725185429806e-02 6.086811777070664370e-02 -4.799712479683281019e-02 4.198621258817666207e-02 6.785556743414764003e-02 -7.540671445641400177e-03 7.067596418043324558e-02 -1.787088421709335517e-01 5.247701410412133199e-02 -3.818409890081858604e-02 9.286318785537354958e-02 1.177854066824579743e-01 1.264201922965965397e-01 -3.499187590617246907e-02 -1.647667273735943516e-01 1.970263967655270232e-01 -5.773554387835889978e-02 -1.331857538152094594e-02 -2.610825862842099943e-01 -1.255097439391786585e-01 -7.187727480086696097e-02 7.463122397926510998e-02 8.895056949259082246e-02 2.901748378025294506e-01 -1.564374269193073708e-01 -7.355663157435474164e-02 2.939266518369024542e-02 -3.151411787492851280e-02 2.574477270306145191e-02 -1.376879004452770672e-01 4.327519615962083926e-02 6.749023559519887194e-02 6.356664933796966899e-02 1.118428241703261633e-01 -1.126809208531023322e-02 4.286820489757199315e-01
3.791443849199460647e-02 -3.175619181327914847e-02 3.789775582463748155e-02 -3.522843548287490911e-02 -8.889647711846625222e-02 -3.291183594602590384e-02 -2.030572165151443495e-02 8.945364882684792018e-02 -8.750087730771853589e-02 3.258949007488727567e-02 3.372103363867232778e-02 9.401707046081012042e-02 1.394228556877236125e-01 -3.487460400701711954e-02 1.784958998984173262e-01 4.981323087524282961e-02 -1.348181169252818945e-01 -5.773216468668766754e-02 -3.770961500708789466e-02 4.598709853724364943e-03 -1.682586141761003434e-02 3.605306257314121188e-02 1.158314418499873343e-02 2.882195556602221709e-01 -7.689261889083946408e-03 2.379725045202942327e-02 4.206558882719921288e-02 -1.569309539546633742e-02 -1.303040849348807099e-03 -5.552861027622540968e-02 -1.663766461534051458e-02 -8.644495072814953329e-02 1.638912453718841325e-02 3.116171353769506790e-03 -6.876986454070338484e-02 -4.512441909521376247e-04 -8.062681710198681129e-02 -1.145241394025829085e-01 -6.053446360603687709e-02 -7.566836255924658250e-02 -1.017171534617573592e-01 2.220892380659081899e-01 -1.809029511811738322e-01 1.347038664158923538e-01 -8.033310355207771980e-02 4.715389436882556212e-02 -1.734317485201032349e-01 -2.366390038260711773e-02 3.817990977337937242e-02 6.189096197137858302e-02 -2.176507335519976480e-02 -1.844572574566915590e-01 7.792934078878523130e-02 -3.861055104474568622e-02 -1.530747229707503654e-01 -5.044611739626030794e-02 -6.703178446534009405e-01 -7.329449974009422109e-02 2.240996338648462705e-02 -9.749078769127568489e-02 1.263723931421312056e-02 -1.377558194096884792e-01 6.253873460664613471e-02 1.021980012094269308e-01 5.899198429174834155e-03 8.339437055538552468e-02 1.098929324495478560e-01 8.206061416665116903e-02 3.708149821980728789e-02
-6.591912888321849184e-02 7.330458925980333496e-02 8.411359351040081922e-02 1.199776086420995848e-02 -1.176976061336290208e-01 -9.689215558508629256e-02 -5.313750310340712574e-02 -2.907445424108164034e-02 -1.502164609640213311e-01 -2.959584725250025833e-02 -5.632672313870332181e-02 2.841099117557868356e-02 1.394342684445074865e-01 -1.860121885128456498e-01 1.477215452737661583e-01 -1.298237310336496364e-01 -3.516668740149331979e-02 -1.942783572488176458e-01 1.412020354898454177e-01 2.149469774646903600e-02 3.815588907174369826e-01 7.832073834175888594e-02 -1.568273295459541583e-01 3.834990499525446628e-02 -1.216684674193354299e-01 8.819685782735450785e-02 -1.405755637660200119e-01 1.585628365956761598e-01 2.516975374100028362e-01 -1.506618294399912350e-01 6.261786289256007776e-02 -1.431466897623780432e-01 -1.278855053332771663e-01 7.483384657724105604e-02 4.371783632406975317e-02 9.436579429419734641e-03 1.616122373023798908e-01 -1.056394754571035460e-01 5.039187043515976072e-02 -3.855993337031451626e-03 5.626214218720780591e-02 1.476401586730494708e-01 1.244121729459463088e-01 -8.372364503456621032e-02 -1.028220411304964083e-01 1.222413208130211128e-02 8.208276313561685411e-02 7.581119913685946399e-02 -7.749679145292182048e-02 -1.678249973279950236e-01 2.297517925350733847e-02 -3.222191774637496453e-02 1.025431100463964629e-01 -1.221187927171443893e-01 1.748332108791460920e-02 1.017168831741679241e-01 -1.745859791107639419e-02 -1.071575660934824259e-01 9.119896076091130177e-02 2.160576277544428159e-01 8.518433393642321771e-02 4.471323849094045733e-02 -1.520342883268089029e-01 -3.052761129062140366e-01 4.935206445677371712e-02 7.817483900154699461e-02 9.043187827199669626e-02 -6.269905767341511782e-02 -4.036830711296542085e-02
1.224031431585763524e-01 -1.416233182344276975e-01 7.898211995199047597e-02 1.566762572585445323e-01 1.426700464942062645e-03 8.801846719709644634e-03 -4.590406855676501530e-02 -1.373810430913278702e-01 -2.158413282875595307e-01 6.467237061453454117e-02 -1.007257942221771174e-01 -3.124951079635674908e-02 -1.201280466036931532e-01 9.061886218954900984e-02 1.455230037779028061e-02 -2.234587477138293976e-01 3.792520136146820819e-02 -2.555661509501436779e-01 6.282710328127791288e-02 1.442209808047626232e-02 5.671323990597303653e-03 -5.823452768684489120e-03 -5.128856581435527889e-02 -8.775181984259347590e-02 8.492499471210764039e-02 -2.928931232018794004e-02 1.738268687231827592e-01 4.185170734465113590e-02 1.062103006385649176e-03 -2.640375400637438863e-02 8.605709789738895388e-02 1.238128706558401645e-03 3.070152628605008274e-02 4.891194252660286540e-02 -5.957900934318086789e-03 -1.833318986136655421e-02 8.020672725873740846e-03 -1.097721691593181448e-01 1.114256195778949576e-01 1.027863176368940951e-01 1.186813271147462850e-01 -1.218052323413541527e-01 -1.390441821990301419e-01 -9.535851493417148161e-02 -1.008472774367000085e-01 -2.200901398718065061e-01 1.329797563867322618e-01 8.779537159430744753e-02 5.926641085441868712e-02 -8.346971040615101811e-02 3.206143993848395435e-02 5.088377642354473956e-02 -1.750347269135018591e-01 -4.809006062322616903e-02 2.499886618304469205e-02 -1.200438227837384020e-01 -3.344930975500888803e-01 2.653991026403730857e-01 -7.937832243361629680e-02 1.259109205605777604e-01 -2.921225033278922190e-02 1.368991738795050650e-01 -8.687894735375506494e-02 1.803390959528881898e-01 8.122426076194008693e-02 6.153260372824612134e-02 1.278200742870605200e-01 3.281287128895937211e-01 9.067138722620156355e-02
1.249036941266848527e-01 1.889825484591859672e-01 4.568893871663355644e-02 -3.454266445597165003e-02 1.279589162102257316e-01 8.815711909084552808e-03 -1.146178484819916632e-02 -1.307441331292554521e-01 -5.501458789565417951e-02 -1.437992725745514122e-01 -8.140406185614096346e-02 1.664809340407401028e-01 -9.849041047111217057e-03 8.394834166772625894e-02 7.030351545567006810e-02 -7.835198007913520002e-02 1.487450168061713041e-01 6.156478960428529018e-02 1.281037249170689230e-01 6.960495434349212029e-02 2.472249412428346449e-01 -2.582587200859847165e-01 -1.749529203053627746e-02 1.385723896348939332e-01 -8.951315753446412518e-04 2.686754858781312608e-02 2.142184368228993163e-01 2.074046406898349959e-01 -3.885410161231137721e-02 1.908455728980185118e-01 -1.086888640236607743e-02 -7.387854425283946203e-02 -1.012253049735283711e-01 1.099714191257359086e-01 -9.314850710082968333e-02 1.637944960292117558e-02 -1.094036212475609227e-01 -1.283677885046285994e-01 -4.704064683022779816e-03 -1.012864058961887304e-01 1.075464293766284912e-01 6.680389201048471393e-02 -3.139900565267626266e-03 -1.634614725504350552e-01 -1.317865234747979120e-01 1.475411527860953920e-01 -1.089872339689312852e-02 2.075155887172500380e-01 -1.535254466451087436e-02 -2.078782039980203548e-03 1.599912244877423617e-01 -9.995393772322769266e-02 1.215415413430352698e-01 -1.422389908459056329e-01 -1.630745193087574096e-01 1.574777118099365825e-01 7.422977514594708559e-02 -5.069300139865966226e-02 -1.030343041829687306e-01 -2.745791624342684978e-01 -8.492045692233783638e-02 -1.078845716506697250e-01 -5.244241257782757126e-02 -5.913975168065410681e-02 5.776419307497333150e-02 -1.417855282771238457e-01 1.541093760427005854e-01 1.286650380640103619e-01 8.702732810070425151e-02
-5.893797671226971673e-03 1.340244401946267261e-01 3.728261702829376717e-02 -5.858979465713714391e-02 7.662452173838019652e-04 -2.469903340031795458e-02 5.085468963021542305e-02 5.430418436912600733e-01 -2.569608652387240719e-02 2.396588075443670598e-02 4.817564361779155119e-02 -1.817830699461665117e-02 8.496590884711806291e-02 2.904897845450890928e-02 -3.430682775598072748e-02 1.168938594457851268e-02 2.340159664250538590e-02 -8.502408763100044453e-03 5.260837989173105383e-03 -1.107745821557636415e-02 5.711432481949934616e-03 -1.567300308330026731e-02 -1.940598793703277036e-02 7.915528980747334187e-02 -3.753974261191286854e-02 -7.821391693518456312e-02 5.522783551727333817e-01 3.605817950955874512e-02 4.890167347670710402e-02 -4.328891129461465148e-02 1.770714931874439388e-02 -1.314442944040117855e-01 -1.584870933380556624e-01 -3.043861784473708004e-02 -6.891663321111193841e-02 -7.701135928848847068e-02 -6.821616808261062037e-02 8.991102557678042062e-02 -3.067223696247394285e-02 6.263231948770804289e-03 -1.377704327589918398e-01 7.746319165682591379e-02 -2.255604233403636361e-01 2.359356943294218037e-02 1.103243449988235148e-01 9.636304679246287738e-03 -4.606164641986771474e-02 8.089853348591914683e-02 -1.149028527413991502e-02 -2.929733523762942035e-02 -7.852552841685171703e-02 5.171829239429461683e-02 8.787099655502271511e-02 2.525673489767087457e-02 2.090335303047683724e-01 -2.159179188784338815e-02 9.266191926174001392e-02 -5.335551658189257446e-02 2.706245631599477619e-01 2.148734801301820097e-02 -8.739105977958587859e-03 -1.350769173192632386e-02 1.075087514978412817e-01 8.826277945405547332e-02 4.565659914221602972e-02 -2.728580046242263385e-02 3.973780755107346116e-03 6.223079779453286053e-02 -2.903919709186512932e-02
-2.247369719863474002e-01 -1.415963017458806983e-01 2.037650816340957557e-02 -5.633378225811930956e-02 3.590464934026751931e-02 6.790029046144775704e-02 1.161065831202004982e-02 -6.064658357888823986e-02 -1.618493495054216386e-02 2.270241702283553320e-01 -1.267518676682377055e-01 -6.996709409444616667e-02 1.142210235822900821e-01 -2.598074764786391377e-02 5.482944762254570586e-02 -1.009637108669261124e-02 9.721649161133695538e-02 -3.196387114634812593e-02 -2.679243500603022965e-01 -6.964413729719005908e-02 -4.761790708874293065e-02 4.168335166861842495e-02 -6.447867823172903634e-02 -2.652628565833531349e-02 -1.480431149928954776e-02 -1.002585581182175237e-02 -3.749486030902363098e-02 1.147398112251912100e-01 -6.161490675772451908e-01 -5.973780538873670748e-02 1.008284237716592646e-01 4.118197425667243644e-02 1.081373281825005056e-02 -2.788124626849953352e-02 8.774637644726120123e-02 -1.689799403641113196e-01 -1.155471408388503152e-01 -8.230770863641874435e-02 5.292951866024955127e-02 -3.055104908819849391e-02 -7.860714306417890263e-02 1.293385627656760406e-01 -9.903284427237647736e-02 4.352566047685596518e-02 5.710421828569305774e-02 -3.625504619966339603e-02 7.466665600254138169e-02 4.983097543200049745e-02 5.330436170986659061e-02 -5.857280273094793432e-02 -1.041944995306979399e-01 -4.075650093013045983e-02 -1.160938482813302086e-01 7.795683260334568265e-02 3.414234814136046237e-01 8.674823354158275879e-02 8.019248755607054011e-03 1.351446895949917279e-02 7.417953475985809841e-02 -1.341975262602242494e-02 -7.036779837978243690e-02 4.429159335893480265e-02 -3.619997066899087457e-02 -2.719289807911223766e-02 -9.963066404235726425e-02 1.041460962617047348e-01 -1.555004135587614335e-02 7.282732732772477513e-02 9.334250722237989739e-02
9.380105434991642399e-02 1.339094785590126679e-02 1.065454779233783594e-01 -2.174414996291065653e-03 2.179266802340658338e-02 -6.054829137639744941e-04 -1.392261406454168085e-02 3.355859237038269494e-02 2.784670799928821300e-02 -1.845709484078490170e-01 -4.593505472572880464e-03 3.167889616040538148e-02 -7.674207952929641696e-02 -4.894417919200844819e-02 -6.082959441369614056e-02 -5.241680835409655986e-02 6.290788534690715250e-02 6.907012026994449605e-02 3.666650908267750364e-02 -2.518929522703338697e-01 -1.440965529256537682e-02 -3.778470073064009449e-02 4.020494265495863639e-02 5.449904450041714171e-03 -3.647622547210672972e-02 5.729734273396834554e-02 1.590894246367938469e-01 4.751589385033015006e-02 2.677578831306292803e-02 -3.939720205449893931e-02 -1.372732811172232414e-05 3.458695437768632974e-02 -3.584848041048579320e-02 -1.185965619561187706e-02 -1.201508218036083375e-01 -1.492617597745702074e-01 7.238686039963203311e-02 -2.568376516084739866e-02 2.847054958415958480e-03 3.679327436892782660e-02 1.840492598981603029e-02 -2.347429588738363104e-02 -3.313992652517301889e-03 -5.406613945964335727e-03 -7.003457934654633288e-02 9.407503939204857335e-02 -2.513594695238730373e-02 1.372104011183555849e-01 7.294196513632295042e-02 3.660053400749808949e-02 -7.317135606145567239e-01 4.660718523129658841e-02 1.010049339010401920e-01 -1.321446155790981514e-01 2.208795324417947847e-01 7.951200975877893706e-02 -4.472080840828770304e-02 -1.174914751744851743e-01 -1.844376549865179016e-01 1.813040390019003342e-02 -7.193554366635229562e-03 -1.554806789455786924e-02 -1.640892065531605881e-01 1.021763183455628651e-02 4.123744129430412936e-02 -6.946361530351505276e-02 1.128378675810357973e-01 -9.369030654891727372e-02 -5.248263151083645134e-02
-1.899127507806321752e-02 7.072879412537119714e-02 1.224288664991775820e-02 -6.351439918441904864e-02 -1.606348899729694857e-01 -7.035229842886527030e-02 -2.099822831347784510e-02 5.262572226350261534e-02 6.466373412971652967e-02 -2.068486855603106356e-02 5.514818306820715166e-02 1.596210741670840661e-03 1.463383328029559463e-02 8.553434311380384014e-02 1.335412463630417622e-02 -1.513557876269386593e-01 7.032025091512257575e-02 1.216254178583319780e-02 7.922432772413180724e-02 1.156304726723196702e-01 6.873298196097908652e-02 -1.326228897863151179e-01 -2.060891540988784576e-01 -1.503852955952607595e-01 1.006244960992554727e-01 5.116016301226846558e-03 6.955505068452638717e-02 -1.395973825357735287e-02 1.132421125024243164e-01 -4.359500194505059462e-02 -4.041199541767652448e-02 -5.695845489677997531e-02 -1.121727778846228207e-01 6.887282597078614454e-02 -1.805634793645352343e-01 9.611425513908368815e-03 -7.790480184969159061e-02 1.706549731049635255e-01 -2.417892376044855976e-02 -8.709510179384846729e-02 -6.991487561605158607e-02 -2.667543330464928683e-02 -1.715803440393288692e-01 -6.070336278479263048e-02 -5.077938711863148047e-01 2.337343523349201535e-01 -1.562764419958436179e-01 4.574239128775998454e-03 1.096485859808216980e-02 -4.517492609646394514e-02 -7.778366832611348369e-02 3.963622862225912175e-02 -9.966916299967219783e-02 -1.213000985357038652e-01 8.899164446897436798e-02 1.027709656206051564e-02 2.427170254691434631e-02 -2.269665940248063452e-01 5.083388560205466533e-02 -2.508891068005871250e-01 1.294164640489269824e-01 4.518596769382803024e-02 3.777173727162993350e-02 3.240811585974407577e-02 2.879838799724490986e-02 -9.136420020735643022e-02 1.036813148597095502e-01 -3.075306095074693477e-02 -3.162695731254385190e-01
-2.233983979178941481e-01 -1.582555118570531591e-02 -1.608616893493683073e-02 2.539730781493818590e-01 5.149356012480624245e-02 1.120559870592116869e-01 -1.432775199450203318e-01 1.198791027164211945e-02 -3.406455549215886558e-02 -1.190305023815866198e-01 -8.126153988445034698e-03 6.574602171221671787e-02 -1.158142381092041873e-01 1.485836808425120559e-01 1.651589342848872044e-02 -2.447429671368363951e-02 -8.666219279832562683e-02 -8.854865552117639760e-02 -2.884935179857750151e-02 -3.229081850150312960e-02 -4.799393304251573476e-03 -9.062955454928216248e-02 -4.235450563174138899e-02 2.463004184322193368e-01 1.657751373482671715e-03 -2.576685118943378844e-02 5.290026643196302919e-02 2.243219498560342917e-01 -2.638493714262003451e-02 8.890635772091729991e-03 1.537310452564684925e-02 1.755312468596730707e-02 -7.020727750881977300e-03 -7.416139765560605945e-02 5.726188171356283441e-02 -5.400781446271952016e-03 -1.327004224034307456e-01 1.554985932274259575e-01 5.082798340425038336e-02 1.213369413042004498e-02 -5.060710599056527509e-02 1.839198976887466974e-01 4.341467856310188278e-02 5.875400135127709089e-02 -2.116535285705699598e-01 1.177366239204111348e-01 2.546841497706428536e-02 -8.052380246500918937e-02 -5.300464529416880517e-03 -1.394272911098734524e-01 3.493968003065006656e-02 5.989563628813144615e-03 6.285102988408652891e-02 7.426929514209930361e-02 3.962580058406254407e-02 -2.279770946510246629e-02 -1.129536338601395407e-01 4.667340044934667476e-02 -3.233589642701382161e-01 -6.456086420438228446e-02 6.265146167913118735e-02 -7.129313895402875079e-03 5.443949438475833777e-03 4.088270740219398375e-02 -5.852186398885465130e-02 4.742376914453629716e-02 -5.670801935757177059e-01 4.886715375757505649e-03 1.735778808498359554e-02
1.918390449540464254e-02 3.326613742027035442e-02 6.872846851894422182e-02 5.613039038213366028e-02 -5.713044332250463708e-02 1.435175553303677520e-02 2.310641095428472014e-01 6.323620661190842984e-02 -2.267710861500345579e-02 -4.102019756155904535e-03 7.525158797904323016e-02 -4.067409749026858895e-03 4.714690662016132565e-03 2.684060691373490407e-03 -5.431951556702458404e-03 2.049063981788245281e-01 -8.426830087931157232e-02 4.350139591312735150e-03 1.706760248569167554e-02 2.509384348233857365e-01 -8.772515803750001451e-02 1.413653149977401463e-02 -3.653124779808375466e-02 8.746944903174938557e-02 -1.130909370231163863e-02 2.492456031404922251e-02 9.074452546268604869e-02 -1.509763905195144786e-02 -1.269278048348625176e-01 -8.351926990051850366e-03 2.596570934924866472e-02 8.666740532332477829e-04 -7.312119656365546894e-02 2.423642912932424606e-02 -2.424073292059678725e-02 2.346261489790898991e-01 5.755824881279777983e-02 -8.053957239267617307e-02 6.953809507225862385e-02 -4.551843631597895373e-03 1.580098233922640552e-02 8.764072861086492916e-02 -1.184694678071679663e-01 -7.380765759272271687e-02 3.704660261963400592e-01 -1.779894103376784484e-02 5.027311651672017323e-02 1.525417413902075726e-02 4.877065254497334190e-02 9.217781035875246762e-03 -6.262733920064608162e-01 9.597383871004017131e-02 4.904133263807858127e-03 9.351627116370228587e-02 8.573444969141658101e-02 -8.521904387100077971e-02 3.693402541913536324e-04 1.030047779732370071e-02 4.199417368199243050e-02 -2.279551714904116608e-02 1.919387953304268757e-01 5.184906115173828350e-02 -1.265865506622851702e-02 -6.278743445087890673e-02 4.198389468539820424e-02 -8.586866731804643216e-02 4.880448069080317586e-02 -1.593079712710220863e-01 -1.185395887807784154e-01
-6.005782755272730082e-03 -1.276446987797416090e-02 1.456186932698560164e-02 -3.406522191614207943e-03 3.832475137225787708e-03 -2.396238135151639373e-02 -2.212800818520193474e-03 3.212285606170219975e-03 6.840745288835547132e-03 -8.853224805883507312e-03 7.655562378095433738e-03 -8.086636911238544168e-03 2.771448850613766630e-03 -3.294996042351875710e-04 -1.772121328746688925e-04 -1.391644982869581337e-03 -5.554362401365964090e-03 2.477129462048295247e-03 7.066632761599219228e-03 2.784608386195872639e-03 7.872726655862454653e-03 4.148762913743543786e-03 5.613107909900869052e-03 -2.018831105105126783e-02 -6.267316817165136979e-03 4.209467754821730016e-03 -7.907847822070549620e-03 2.704729322003169255e-03 5.686187393441841272e-03 2.281598985516534832e-03 3.339180703904404135e-03 1.924055273577864609e-03 1.826589284014699553e-03 1.536823436772417862e-04 4.626905239968483186e-03 -2.808187319026230529e-03 -3.847419486275819450e-02 4.371279342807504222e-03 -1.374701756019276353e-04 1.317305643387726294e-02 1.113947316225547815e-03 1.970478229436312817e-02 -1.634148747604571112e-03 -2.029407168508968323e-02 2.849618820155398060e-05 4.975870175481856769e-03 -1.217620351262458425e-04 6.002006479357905461e-02 -2.515748557013748957e-02 2.918435485450659962e-04 -3.372782476632215417e-03 -4.086316278078014168e-04 -1.897807269766322560e-04 -2.270624347295024936e-03 -9.924214410924772078e-01 -4.856842150518026098e-03 4.787258221309039635e-03 -1.490785779510172019e-03 4.617826776455765791e-04 -1.792409302133415741e-04 5.098321027991764565e-03 7.261228786138302889e-04 -1.622444313412065844e-03 3.724378821357700689e-04 -1.041163695729467251e-02 7.528743355914305213e-02 1.292866319731889556e-02 1.434477729394272039e-02 -2.740155321788202182e-03
-3.750691796631095559e-02 -8.507440469789430415e-02 1.930849080044953064e-02 4.211715060544490158e-02 -1.458993595660547545e-02 5.143319722228150044e-03 -9.393889850635936400e-02 1.876943700653406488e-01 -8.663006225787550640e-02 9.142318569839250064e-02 -1.187153439226696847e-02 1.442729421228855155e-02 3.937152412628846382e-02 5.524000098446974621e-02 1.874470383726330180e-02 -1.771933493816459093e-02 -2.637578068962980089e-03 -3.384975126820088942e-02 -9.761437249013342476e-03 1.557798635544583449e-02 8.759103578705799142e-01 -9.806515289326894064e-03 2.484171988843902890e-02 -5.755265787380643011e-02 2.415096496605731793e-02 8.201025736954238587e-02 3.491910926440864454e-02 5.799614515540489450e-03 -1.116306892714465267e-02 1.788866168436915177e-02 -3.482736814096611816e-02 -5.800565210313324976e-02 -3.544019025105887843e-02 -1.367878901450696703e-02 1.805780186469709350e-02 -4.120627553353500144e-02 6.911345436844336387e-02 -2.894169364257384233e-02 1.441087971952169193e-02 -5.230712327023016861e-02 -6.879748170137096018e-03 7.929315589294581162e-03 1.715042709116576395e-03 3.028985633270522056e-03 1.054399806959911007e-02 7.688930653390785991e-03 1.694459339049958491e-02 3.722148760610936857e-02 2.837522146211113663e-02 -2.425287730527925234e-02 -3.799238109499427501e-02 -1.283903144618452931e-02 -3.546965512516112029e-02 8.713204119041852158e-02 4.502050569088270754e-02 -2.643747643730732372e-02 -5.934647482812466929e-02 -6.352333067356115415e-02 2.609301256209897377e-02 6.251754674868086059e-02 -2.347404412288366660e-01 9.109797388727705614e-02 -6.989804259323337265e-02 3.751524830105863045e-02 -5.866302977764176890e-02 -1.052681960620588247e-01 9.466409798567690381e-02 4.608145402433960758e-02 3.317534448821028714e-02
1.727114892752456068e-02 6.663868118057500456e-02 -5.501913310112627881e-02 -9.085183088982737298e-02 -1.914674963437526523e-02 2.114593155427692620e-02 -3.429581746080668375e-02 1.515082263880968283e-01 4.179482351803209816e-02 -2.629587255269458940e-02 -1.627851391444451457e-01 3.306570992520199703e-02 1.298868099123033117e-02 -6.350483432062764555e-03 7.672009069484636568e-02 -2.913156984938992944e-02 -5.155576201853725310e-02 5.651466205830262685e-02 1.701830839380298610e-01 -8.654200833336962717e-03 1.249490327884269503e-01 1.448785947074497649e-01 -8.165020665168652714e-02 -5.644527274087667718e-02 -3.443772659930759844e-02 1.394895742158791703e-02 3.521190848956925329e-02 5.905034693339084040e-02 -7.076104110497646871e-02 -5.114385585347030333e-02 9.055296680846374943e-03 5.709698629564762679e-02 7.012296028653733360e-03 -1.036911655121696210e-03 -4.077213409121460685e-02 -3.420026372065247677e-02 -4.780606592780158731e-02 3.506383586016954823e-02 2.842750587733615386e-02 -6.029488437375672694e-02 -1.375106628560341174e-02 3.595977170698348453e-03 -3.934101443722737984e-02 8.528886881064352832e-02 -1.270914892786854586e-02 6.085150495886212235e-02 1.396195278323082989e-01 1.691282301181829331e-02 2.387102379305340236e-02 -3.097215042182271949e-02 3.449721532111727287e-04 2.877642719199229732e-02 5.620557807010020251e-02 -1.629423481409153149e-02 -5.649568423131570011e-02 2.504355604268147448e-02 -2.959396282596082894e-02 8.424859811437959145e-01 8.096924653106367734e-03 -1.467053732806661848e-01 -1.013699496850607867e-01 -4.228596403607255520e-03 6.079170880963329776e-02 -1.997445494160021706e-02 1.774610018808195008e-02 1.467714512743904520e-01 -4.473675781355156839e-02 -4.346216703479841188e-03 -4.816402959917506603e-03
7.482924485745001686e-02 -5.631017385174501982e-02 -1.142961147582667071e-02 -1.268273356207396951e-01 8.752761563792224586e-02 -1.152810780238327781e-01 9.198350621757306333e-02 -1.957972298746736908e-02 -9.580412277138660717e-04 -1.607246551085056430e-01 -2.067067637046478834e-01 -7.508799383852336751e-02 4.971207423375179763e-02 1.736595074849003606e-01 -1.418141746417183810e-02 -5.594948197298187792e-02 1.036097279862873421e-01 -1.910499271265314603e-01 -2.471916170550057523e-01 -2.739163703002862275e-03 3.385162770109874653e-01 -1.718860564893366361e-01 -1.553825173052887365e-01 1.234197210999783828e-01 -1.457553291170551879e-02 1.590960881627347667e-01 -9.092929271057013929e-02 1.535798635983798566e-01 3.605583886799572368e-02 -9.543343555655597887e-02 -4.710200260157792335e-02 -1.761894590248903048e-01 1.305668640370094558e-01 1.020766273069601410e-01 1.582410581407395489e-01 5.912893359891117917e-02 -1.749232015331668791e-02 3.074622972657560516e-02 5.379189549487354421e-02 -1.852211667753735913e-01 2.294011668432545670e-01 5.164106141795962897e-03 1.905943916704257723e-01 -7.004253133914714602e-02 6.181764136796740611e-02 -8.969616657139452276e-02 -1.717976147684193433e-01 -7.029273627683008119e-02 1.498236387402833991e-01 1.399394143320006056e-01 1.542939962023166800e-01 -1.251305638220270855e-01 1.248314955809091270e-01 4.152280102572290799e-02 -1.948561471148820348e-02 7.775807769861195484e-02 -9.707418708456147516e-02 -5.684874436565922479e-02 2.939392094492851784e-02 -7.972916367063281884e-02 3.112050841898068854e-02 1.496954520011459511e-01 -7.925089324609290581e-03 5.156302958251186147e-02 -1.393257618715230406e-01 5.227947300041305145e-02 1.007625815175846179e-01 7.629497157436400390e-02 -1.347896480349294324e-01
5.425871694916190729e-02 7.736090240950400931e-02 4.236075408448680690e-02 -1.520599031026567682e-01 7.350407782018083744e-03 -1.442605619188194917e-02 1.067378057936365504e-01 4.282957869757811342e-02 -1.819935862023894235e-02 -1.443444865486865070e-01 -3.887195408128610308e-02 -7.679546757244354316e-02 -1.603947192982820014e-01 2.261067346715259219e-02 -7.166945359488402501e-02 1.087215596567164128e-01 9.017876265217548981e-02 5.608830651448734606e-02 -1.139849011357630670e-01 1.307731509882967443e-02 2.524463481699973366e-01 -6.314458701705821797e-02 -1.064718486290317234e-01 1.349538634528050715e-02 1.123957010468739776e-01 -8.035025187849248463e-02 -9.367054476621607118e-02 2.131013738078390684e-03 -2.257072948230461323e-03 -6.488149315669630712e-02 1.875561898419046136e-01 1.206635783322008160e-01 -1.276297118241113693e-01 -2.169026260139288100e-04 -9.415409850582349971e-02 -1.028215637990499282e-01 -9.699715980325734899e-02 -2.928881458985941877e-01 1.662917821296379939e-01 -1.794686805094867776e-01 6.482450777107015560e-02 -1.500957952073472546e-01 3.730335094144480168e-01 -3.885578208539802042e-02 2.955008407943963272e-02 -2.605239237912460384e-02 2.223563915067155450e-01 -1.184126941954854739e-01 1.186542475347952402e-01 4.119691430416216882e-02 -1.621809877394237986e-01 -1.183362552157208591e-01 4.951893718569206487e-02 9.853734888279215565e-02 1.098545753708797396e-01 2.312992953866942758e-01 -6.759923131228860738e-02 2.281504653147404388e-02 1.491890962999385672e-01 -2.200546000742677547e-02 1.502262584272209822e-02 -2.104334320797905319e-02 -7.912082326702490898e-02 -4.780791781052686623e-02 -2.788896753461399605e-02 -7.089893949117198613e-02 -5.398063099720745717e-02 -1.501524793358662568e-01 2.647395467086020582e-01
7.284779262515130201e-03 1.088027995774417354e-02 1.407937389534697770e-01 -6.964434156408337573e-02 -2.114314914625644026e-01 -6.626269633971799272e-03 3.520297231542260374e-02 -1.176222263741388691e-01 -1.301249516320497068e-01 -2.581023844946013848e-02 -1.985287477236473697e-01 1.311212933225573141e-01 2.545746077200427074e-02 -3.345631139991960684e-02 2.047544256151477837e-01 1.197421253211176234e-02 2.574396955475685145e-01 5.767116674823231232e-02 -2.105150336281438883e-02 8.572080937389077449e-02 -6.168251649747075183e-02 -4.762646685281144571e-02 4.527064951288294753e-02 7.384734861698941111e-02 -1.591739452920109404e-02 -1.304839934551904890e-01 -1.911262624047150027e-01 1.372788316491002358e-01 -1.348516889098617111e-01 -5.065443623113035504e-02 1.613158291610695960e-02 -1.998651787160159871e-02 -4.840929690895452719e-02 4.448515081623535122e-02 -3.143932351321781504e-01 1.019217113866378449e-01 -8.296189654465439822e-02 -1.529815584899968904e-02 3.114168515783091729e-02 3.256614319469957053e-01 -2.867501615911461146e-02 1.553989165284700158e-01 2.700985973608966556e-02 6.847406006684823854e-02 1.329684375574567146e-01 -2.835828920784022253e-02 6.507642615003056408e-03 1.840659011338935669e-01 1.665477490197754193e-02 1.618513358998569795e-01 1.761346555991244456e-02 4.995120063200075150e-02 -4.871946760957826528e-02 -8.759979458806474439e-02 -1.761339377118333882e-01 1.049565633045687618e-01 -2.768310836606433997e-02 9.362852068695559637e-02 -4.106680570035754069e-02 2.496112492368881414e-02 -1.062427408893019390e-03 9.635746941409467636e-02 -3.087740541208465195e-01 1.823848723043797471e-01 -3.722578014558713955e-02 1.628914873652211603e-01 9.817877016762897868e-02 4.911509639264589888e-02 1.752115640362600646e-01
-1.110982227113756632e-01 -9.135668493542152546e-02 8.420480376470491912e-02 6.135757082183745242e-02 6.892854158140875737e-03 1.014712273913148805e-01 1.237769779259448727e-01 -1.428956311646389643e-01 -3.195811454687840641e-02 -3.007038597119123802e-01 9.033779726893505224e-02 6.098934717543749717e-02 -4.896359954259106584e-02 2.021776988612467296e-01 1.520960879108881059e-01 5.810732142969119579e-02 -9.351456519029807679e-02 -2.223964469987420589e-01 1.322954328268662050e-01 1.164783688083579627e-01 1.012598565512370929e-01 1.052459121177676399e-01 1.799488098029795036e-01 5.185111533657696392e-02 5.053382283440301104e-02 7.082624849345170448e-02 -9.022731960176560984e-02 -1.955339381199067833e-02 -4.970658310134095509e-02 -1.327762747072440963e-01 -1.397598407912987450e-01 1.008308776233961118e-01 -1.554040130642796447e-01 -1.325381094629677400e-03 -1.141883434420204041e-01 9.071425601482696610e-02 6.611265448403264022e-02 -3.951058699183818829e-02 -1.252544929156542211e-02 2.182894448081452166e-01 1.545171188397363171e-01 -7.414605579819254222e-02 7.610437554268016658e-02 -1.141463817514876272e-01 2.130646010093860399e-02 6.461858569164992405e-02 1.104934413580695302e-01 2.109741434213883438e-01 1.117709485732300140e-01 -1.316249538620996307e-01 -1.822245667246549239e-01 4.022652708699774732e-02 1.350950230245861472e-01 2.724844815944950094e-01 1.079660962451921280e-01 3.008538886225952183e-02 -1.222268729642261437e-01 5.821887486951611568e-02 7.320081451990795296e-02 9.305289786928033768e-02 4.276635223993938834e-02 1.983899799016310139e-02 8.971277382671408174e-02 2.750630984934676962e-02 1.630471102064857680e-01 1.248915035145544833e-01 -2.682970904769974019e-02 -8.832131150623094562e-02 -2.553736158888658125e-01
-5.923584245072773674e-03 -1.694257208561803993e-02 9.944388276003648941e-02 -2.015444994122776029e-02 7.043366695685358836e-02 -1.300183286964737006e-01 6.486686550751092489e-03 9.654580606463966652e-02 7.142176848865092187e-02 -1.094549097043399921e-01 -6.465849851631101652e-02 8.419218481694315526e-02 -2.984201442450548081e-01 1.809318258497001064e-01 2.172742852057071850e-01 -1.079187174454659948e-01 1.195930202501641754e-02 1.397018604206098913e-01 -2.402978596693865765e-01 7.294472479080446603e-02 -4.169741059400294825e-02 -3.553626752121764876e-02 1.804107445458803249e-01 1.261391627871480403e-01 1.072681519698291328e-02 -2.987546204326344546e-01 1.197319289916389529e-01 -9.203562174276513908e-02 5.148179376120869122e-02 -8.116168329406645010e-02 6.813000758667211998e-02 -2.647023773375581368e-01 5.617240181601370480e-02 1.739962524466150406e-01 -4.034292614240828079e-02 -2.583944614868325437e-03 -1.636345642441258408e-01 1.135859441399856146e-01 3.476086028707270348e-02 -5.531151897782562998e-02 1.318594668960528134e-02 2.823548431968724848e-01 -9.539936761555140032e-02 -2.285602421448867105e-01 3.127788484180429179e-02 5.728069005501933847e-02 3.477922366632412582e-02 9.559913158895599894e-02 -1.361892060260262542e-02 -1.164005550641097758e-01 -9.043773605498160034e-03 -9.747472348663424602e-02 -1.290697947033330739e-01 -5.176250315044834266e-02 2.446985820673415468e-02 -2.761793685070804832e-02 -6.786603540995062023e-02 -8.830404444287495713e-03 2.417292942663498700e-01 -3.889771049569781119e-02 7.411887416381435223e-02 9.907252528748507203e-02 -8.165922352711031673e-02 -8.537766598063550871e-02 1.593141837711579620e-02 -1.016981624279366253e-01 -1.370577044798021726e-01 -7.712620544256579280e-02 -1.036847492480406918e-01
6.663356852123381024e-02 9.022901012567115242e-02 -1.351027391386872556e-01 -3.601653169903089313e-02 1.289813189655801377e-02 -1.012084579607773621e-01 1.109211769442364909e-02 1.515557162859432205e-01 -7.641860549262149971e-02 -1.742606425794667457e-01 9.748680408582112433e-02 1.631520794008268216e-01 -1.816235417640119920e-01 -5.815547280649531296e-03 -2.262636927867338679e-02 1.627353452596259215e-02 5.462999552597021247e-02 2.808880295857533668e-02 -1.282326093876918528e-04 4.504639764153021281e-02 7.882485317342768916e-02 -6.048307251010057728e-01 -1.137433481308986090e-02 2.235959495853137233e-02 5.780510921209976866e-02 -7.586177740780666867e-02 -7.457307168767511596e-02 9.352229049316446163e-02 -3.515415771282389551e-02 7.835947350863566030e-02 2.255916226429769550e-02 -5.505462907209084794e-02 1.185184585297038851e-03 -1.290642247379310825e-01 -6.098113929300593566e-03 2.033040401134030284e-01 -1.613312100982416258e-02 -8.586281031853656293e-03 -1.692623771440840419e-01 -6.275608970031264222e-02 1.090094162708997033e-01 -1.942258975610688110e-01 -5.338757168351968702e-02 -1.619915601428338755e-03 1.000169319371197428e-02 -7.776007582943831806e-03 1.643773506951268226e-01 1.093218387117063893e-02 -5.910719956204601999e-02 1.070613728988146635e-01 -3.539497551048496893e-02 -8.488937075025654311e-02 -4.043932173960010368e-02 1.770662067704584230e-02 4.439188305441813670e-02 2.648082803027492979e-02 3.767096939851191650e-02 -1.003515624446666282e-01 -1.016851274407830630e-01 4.379964615113132731e-02 7.709084707716862273e-02 -2.450611121338353848e-01 1.328309467642404818e-01 2.346239107151627465e-02 2.876586891842373706e-01 -1.032090900643153758e-01 -1.132004230062938765e-01 -4.893127201601572829e-02 1.267453414136886052e-02
-2.278711090286041629e-01 3.360403848585765546e-02 1.631371428656227807e-01 7.305499322413642246e-04 3.924624803855880639e-02 -4.326715349718994463e-02 -8.244342471293023000e-02 1.922358160394426786e-03 6.472037210104981952e-02 1.542850655244539827e-02 9.702041528354270195e-02 -1.429540873374915977e-01 1.542611512633899722e-02 1.463372898174489789e-01 -1.814380041206945307e-02 -3.189394559161915638e-02 1.793518013701248318e-02 -6.755103157910802292e-02 1.072137580617543717e-01 1.177953230552662017e-02 4.223510820597419640e-02 -2.933816090194797926e-03 1.498068146734060080e-01 5.258660774745929634e-02 1.414615102360530230e-01 5.579367288390370272e-02 -2.048453096289488615e-02 -1.525253364982326332e-01 -2.955564437332704186e-02 -2.701344930566942221e-02 2.192313392028984176e-02 -4.410658250498821625e-02 -7.789270158582621562e-02 -1.835294812287771304e-01 -3.424831484691663597e-02 -1.462730429861853754e-01 9.808183661774882989e-02 1.012140640526965063e-01 -8.541479937521867516e-02 1.286167259147880382e-01 -2.040422266198664569e-02 -2.075854022931402244e-03 2.274832929003377247e-01 1.335078216108490923e-01 1.635512332637346633e-01 1.038357546518827446e-01 -1.402084108900063242e-01 -1.458918831485874756e-01 7.473047049042384760e-02 -2.141213390993165766e-01 -1.655825371312863725e-01 -3.567676161120154205e-02 5.688553171187585855e-01 -1.222160859003464843e-03 -2.841651064595604459e-02 -3.601321484903784176e-02 4.401323096003954133e-02 -3.729618290351172788e-02 1.530145576000408294e-04 7.991382669825526641e-02 4.500518709112968224e-02 1.516220872000691722e-01 1.977143188739901095e-02 2.325930386944435879e-01 3.931229390363666365e-02 -1.983694642129188099e-02 7.847983675032912942e-02 1.787362951559760479e-02 -2.317912572710821573e-02
-3.054776967518620795e-02 2.972489363425450531e-02 -2.007670367466504388e-02 -8.358276469337873327e-02 -5.586612256125546988e-02 7.215946066868693387e-02 2.932295526882768288e-01 -2.001337394122930102e-01 -8.293930156413160341e-04 -4.471512179679441867e-02 2.648800904724660579e-02 -1.861709891525860968e-03 -8.246700283042503188e-02 6.756716659347695433e-04 -4.900936002707187433e-02 3.099717875286307420e-02 5.994884636300310682e-02 -3.179864801751605685e-02 7.065316832631766963e-02 -4.516877237166205816e-02 -2.961033799233827035e-01 3.214179416593067502e-03 -4.384926479839392627e-02 -3.718821991107995606e-02 1.338852309046210109e-01 3.241293722832241930e-02 -5.110217012073723503e-02 -1.137938330647285667e-01 -9.963057686967924376e-02 -2.072587175807017457e-01 7.114542203365567530e-02 -9.242156895979893039e-02 -1.001406018100985396e-01 -2.779047820757220011e-01 -7.536448550024291149e-02 1.638874988812112632e-02 9.255152465297712683e-02 -8.181015921910489430e-02 8.756228749009216383e-02 -2.256634419044835013e-02 -2.907228865189281919e-02 -1.261271995512596722e-01 2.852198913857127427e-01 -2.078803272409927502e-02 4.126964205687119747e-02 -2.743908587278901814e-04 -3.581010227059176071e-02 -5.018673028911233014e-02 4.978699321902550767e-02 -7.025848623070343919e-03 6.304582489057615480e-02 -1.541786638858779479e-01 -6.280157805658712067e-02 2.504468761906268326e-01 -5.470626092266894086e-02 4.947992065561137437e-02 5.310103703239160700e-02 -2.894503624452556684e-02 8.747849927321557639e-02 8.201768072837858914e-02 1.269918548679418724e-01 -2.895987273791160721e-01 5.467107982614214517e-03 6.087926576683828223e-02 1.369290587117398192e-02 -4.735768542115370572e-02 -4.359619680566929611e-01 4.869249512728871486e-03 5.057220116463516379e-02
-1.271209707708181912e-03 -1.378467980119216880e-03 -9.627058101085290281e-03 1.430255491722759453e-02 2.893667911470398663e-03 -8.144065528113558772e-03 -2.083963658239200781e-02 -4.997639426238715231e-03 8.869155320966265812e-03 -5.071074067260546853e-02 -3.155247591081977547e-03 6.916821064218381344e-04 -1.478477432083981401e-03 -1.135317142873080391e-03 2.322435257771195312e-03 2.947852800101140227e-03 6.067444965471222029e-03 -4.956967188331050898e-03 1.378870909336769521e-02 9.926874119155559839e-01 -5.510748781235277199e-03 3.775322699171678592e-02 -1.382249540048209819e-03 -8.866279541739823054e-04 1.082816743069349961e-02 5.956066568039609802e-04 -2.085965699656654182e-03 8.844748301812144220e-03 4.307623482904572587e-02 6.541458044801464616e-03 2.976606801492945927e-03 -1.065480867858009141e-03 -6.556295706967303627e-02 3.160586871252327179e-04 2.092836347953203838e-03 -1.299145198053194318e-02 3.531026826979855298e-03 -8.283531432986436863e-03 -1.769560022457501670e-04 1.558634097660347405e-03 -8.889868413747238282e-03 4.894539595695013984e-03 9.773807266704715547e-06 -5.335846299306012258e-03 -4.759920700338217056e-03 -3.419785611335391523e-02 -7.507228187885984019e-03 -8.192778942278494334e-03 1.854406872158135058e-02 -5.489435771760838370e-03 -5.626810680843663884e-03 3.696709028249033817e-04 -1.203441996090837997e-02 1.317545566119954388e-02 1.371369097370984426e-03 1.395712408789320878e-03 1.128228825447792584e-03 6.308358055714308188e-03 -1.075461732169976509e-02 1.992079348629928373e-04 8.874625816974967413e-03 6.758911855094679351e-03 -8.459592720200847030e-03 6.939143040609371382e-05 7.093914353074610990e-03 1.020945713667086247e-03 -2.249896481956926118e-03 -9.457148283197389441e-03 -3.350098207633384149e-03
-1.352594476974816051e-01 -5.403353135053753920e-02 9.775117691470804060e-02 1.005017253638711971e-01 1.949647338478800035e-02 -2.849718136496303886e-02 1.172124728603442072e-02 -2.999824898259225922e-02 -1.951874007970396396e-01 -2.861819525667576650e-02 -1.875415458898198676e-02 5.891332771227478227e-02 4.766015217632513234e-02 6.446856047792058619e-02 8.226540510796953587e-02 7.745394119644025133e-02 -1.655639321728956739e-02 -5.101341975862661721e-02 5.553920538616537173e-02 1.092625711946528660e-01 -1.086755431129422383e-01 2.731237174020378911e-01 -2.660616127443422574e-01 -9.055710211199064982e-03 -2.010445244380978935e-01 -6.134836565993607299e-03 1.138799822406320189e-01 7.260779043076660833e-02 -8.612558083764630668e-02 1.051315140312511359e-01 1.224153659450012283e-01 1.639070399641810449e-01 9.076444030692475129e-02 -1.529597966317236546e-02 1.042449931244680966e-01 -1.546986728380052301e-01 -5.932023709783317000e-02 3.657389784325445776e-03 -3.683649025456416266e-03 -2.538923638815654416e-01 -9.380190731514670074e-03 1.600868528732572738e-01 -3.256666678732802328e-02 1.040241177657835053e-01 1.583086607225911158e-01 -8.453649527057309487e-02 -2.734885375892287529e-01 9.542736604005461198e-02 -9.253211320898046752e-03 -8.748984441810263302e-02 -2.718921927924143334e-01 -4.217764454159815546e-02 -1.473620209305158413e-01 -4.159234402261930731e-03 -1.553185005131907381e-01 1.026775946584094906e-01 1.495446638654133187e-01 -3.183890557949314165e-02 -5.809042054603924532e-02 -2.094925687205558551e-01 7.103715796799593696e-02 -5.379008105270650930e-02 -2.159092884386254740e-01 -4.834097175728695878e-02 2.557813410611463334e-02 2.419492141879519068e-02 1.225348460078950624e-01 2.208256733807437699e-01 5.822433186465555272e-02
9.662042189162724226e-02 2.908027308263808064e-01 4.471338601979299443e-02 1.339070761536748366e-01 -3.910594895939310117e-02 -4.682266718475536910e-02 -7.743734423603357286e-02 -1.440185862134420181e-02 -6.050129823423990028e-02 4.717735666900688130e-02 -1.979879009276659108e-01 1.396548890441358381e-01 4.654929633880228179e-02 -9.373811761123965192e-02 1.390191266270891235e-01 1.718883393752242694e-01 -1.819564127308384571e-01 -1.274547331127525440e-01 -1.365913124592111824e-02 5.445298351465157650e-03 3.380475758397148978e-01 8.991596973992009578e-02 -1.974390073351699540e-02 3.175202658682856061e-02 -2.414901938450536301e-01 -6.294608233753366811e-02 4.027674994689930954e-02 -7.405956644765565589e-02 -1.459451908413110684e-02 -2.076145680955894177e-02 -7.847618701436426952e-03 1.784345684746362903e-01 1.578644219422861983e-01 1.678021958323502316e-01 -5.184421121677416922e-02 -3.807667614083041184e-03 6.184022921985946053e-02 -2.953561146535159734e-02 -1.197300793019512449e-01 -1.406922674534031859e-01 3.527015214887334327e-02 -5.844483734590797536e-02 6.698153293805741981e-02 1.657385232295432650e-02 8.621126993465147437e-02 -2.984290544447992105e-02 -4.466675244914980469e-02 1.254386849738348408e-01 -1.263255229496026422e-01 3.211465312976579702e-03 6.056688033130787352e-02 -4.041183817513608473e-02 5.497125596007358672e-02 -4.337652566503704676e-01 -4.245029514495356031e-03 2.152541195159621279e-01 1.217915538537285014e-01 8.963584625265804545e-03 6.482184143697736212e-03 -4.465711762580295424e-02 -1.549949632033127862e-02 1.673932934260729255e-01 -8.988524329970706828e-02 -1.020373961462245904e-01 -1.456247340165029991e-01 -1.418604691015455492e-02 -8.324902152238621358e-03 -3.978284674292995038e-02 3.048824349798046410e-02
-6.185766317542000514e-02 -3.635652824860535759e-02 -1.586002566550945014e-01 -1.000753165478781431e-01 9.556094986558073823e-02 -1.586780521491963358e-01 -4.408889366973656188e-02 -1.364621305413097896e-01 3.785494238458955718e-02 -7.802071376132148697e-03 -1.022571949409253542e-02 -8.608222412719163108e-02 -1.219503184903023701e-02 -7.066131039602744496e-03 2.552447434179967722e-02 2.094305690919042243e-02 5.629924083858499351e-02 4.288999246254085462e-02 8.713439467515093906e-02 -3.486667427851319195e-02 8.165009514020950265e-02 -4.975714561144164994e-02 1.584517816572627580e-01 1.172113425264149633e-01 4.498074911089951222e-03 -1.821390238765220049e-01 2.536073036585116403e-01 2.819895962001351536e-02 -2.213252311167274167e-01 1.668286264152301912e-01 -8.450855372931968465e-03 -6.939753659794806358e-03 -3.252517083882969923e-02 1.615922371066903507e-01 -1.228835158463360833e-01 4.559584956035899750e-01 -5.417732884889250866e-02 -5.122248284774148092e-02 -7.912332550339398751e-02 6.873350109010499531e-02 1.783699395930176679e-01 -6.593627851764893855e-02 -5.109811775626309921e-02 -1.328653148030649539e-03 -9.712921949974781533e-02 2.736367465785307096e-01 -7.283713141905161226e-02 8.306358011409699371e-02 1.706637689448727013e-01 -8.763657478321904004e-02 -1.093647175471731264e-01 -6.628267918717292706e-02 -6.243049922696575910e-02 3.135370515044188511e-01 -5.423486447417605327e-02 4.131668001090203074e-02 -1.037890295885332721e-02 1.356729461262837499e-01 -1.095983947058205565e-01 1.556197472733743606e-02 -2.194652081046920972e-02 -1.297746749303715745e-02 1.191056275155535082e-01 3.870454093579923059e-03 -1.851966058359634792e-01 -2.502654398298774507e-02 -2.541124586216225376e-03 -1.058394880514533076e-03 1.220365807847134387e-01
-2.989056817616811412e-01 1.262444781321938603e-01 -2.341791884677197830e-02 5.473745433564686236e-02 1.161076063571406768e-02 -3.907533197545873943e-02 1.164544482901760519e-01 6.875506321768545814e-02 1.038725616720614225e-02 -1.464559014083206302e-02 -5.608795475460488095e-02 8.250270955085176050e-02 -2.928367115803982151e-02 -6.184454168620646258e-02 -9.680439113212989388e-02 -3.801812531717652099e-02 -9.562228268623859662e-02 5.105549202809230025e-02 -7.550437747289465151e-02 1.114462991188037468e-02 3.926997531516554507e-02 -1.769635194366756259e-01 7.094823371492874342e-01 5.388842241051300386e-02 5.123998765077622183e-03 -1.383500052827699167e-01 -1.639261243790879063e-01 1.490140667519316009e-01 6.161037907567096239e-02 -5.625260430734173311e-02 -2.361988753276255196e-02 -7.643379386736066927e-02 1.277115255143722143e-02 2.633198336097592601e-02 1.999085224311312331e-02 -3.705720560022842530e-02 2.257705637445144367e-02 -5.087818368196213303e-02 5.399185112766825313e-03 1.272705303109443464e-01 -5.367847426287218615e-02 -2.569191436851273394e-02 1.685413672183217609e-02 3.154169549846247422e-02 -4.164141795187647349e-02 -4.379230852677419572e-02 -1.144966726053183725e-01 7.406533317966483565e-02 1.476436143477623808e-01 -2.493402211143718253e-02 5.904141629545407027e-02 -4.962196638987347724e-03 -2.302753057384523613e-02 7.812568597290071859e-02 5.962244843688643825e-02 -8.844849911448862678e-02 -1.287199213330528780e-01 5.754046867100801044e-02 1.140826800846952566e-01 -6.365362341745914310e-02 7.882735476793385765e-02 -6.238854983182936381e-02 1.194239273805362475e-02 2.429244563491428643e-01 8.553347399736581716e-03 2.714555575794879577e-02 -5.631778618092398575e-02 -6.116747734675799519e-02 1.570753393553399671e-02
-4.903872137684909399e-02 -9.169032095952357742e-02 -4.470866229169172257e-02 -1.768255873074757178e-01 7.946440962725026536e-02 -8.535905042385692754e-02 4.217829328483600759e-02 -4.528804098695464464e-02 -6.531961831143114072e-02 -9.095636889630243083e-02 1.961432455769666905e-02 3.555402634082261565e-02 4.266570087267736178e-02 4.825124176972220291e-02 -6.728438830459300413e-02 7.941306218630063418e-02 8.213629091993734921e-02 -1.099760185231778292e-01 -1.752027842417476500e-02 -1.361355727992934472e-01 -3.662536277029559972e-02 3.681135543393997123e-02 -5.198815319728946477e-02 1.085822704122125087e-01 -3.937362056629544610e-02 -3.118419914579264804e-02 1.780110921103108812e-01 9.807994002901325448e-02 7.752386052569807881e-03 -6.314846515066399602e-02 2.147793195080986359e-02 -3.686907450779736140e-02 -1.569027615273388687e-01 -6.791489217070557916e-02 1.371568212248731704e-02 4.220871598866889063e-02 -2.300038389140929285e-01 -1.693864208968165752e-01 2.255211349795908579e-02 1.091591899695324927e-02 2.998170849731293108e-01 -2.776390725456464800e-02 -6.296384347995831465e-02 -7.849182945578511011e-04 -6.651008197373439734e-02 3.848427629723683574e-01 1.304023318229403650e-01 6.957445373883479334e-02 -1.012909716641310518e-03 1.483512734948442269e-01 -8.403384159174827339e-02 -1.691770532825753182e-01 -2.797880621325944672e-02 -3.820868146089324152e-02 4.833328289393297450e-02 4.391801792773983304e-02 -6.194768333488555150e-03 -8.656363346384312110e-03 -1.536295385959585702e-01 -8.237198213916437084e-02 -1.388567094754776243e-01 3.127376383566912166e-01 -2.608388526651296280e-01 -1.485443301797948479e-01 2.636302753372033458e-01 1.382533568748099684e-01 -1.013124514477147103e-01 1.053963534222071285e-01 -1.022482317932126156e-01
-1.383092740892188921e-01 1.271978894599710419e-01 -5.457434668759664209e-02 -2.089987242592470373e-01 -1.085097264865955424e-01 3.738997453897112584e-03 -5.221099110839766411e-02 1.341073125406290756e-01 1.014217323757793804e-01 -8.013186095535182463e-02 1.062126845241003793e-02 6.234895227069842810e-02 3.091593731063113637e-02 -8.821974848986186002e-02 6.217041404677602079e-02 -5.194153709200350494e-02 -6.916467082128589794e-02 -1.189542481388672218e-01 -1.790761811340965404e-01 -8.140377666809679724e-02 -3.433815732267087896e-03 -2.400920173347741854e-02 1.126731517816386835e-01 -9.741374213292261497e-02 6.921149920346769679e-02 -3.979655030379640190e-01 -1.084167218698506158e-01 1.334345399095691609e-01 -7.258307300446714683e-02 9.137456616917417895e-02 8.217777771004119991e-02 -1.269217324694446591e-02 -5.410654144060681597e-02 -4.462186997458587184e-02 4.120664007835250255e-03 -4.063336307850638485e-01 3.481045280390825947e-01 7.244162220568231558e-02 -1.249095770708278791e-01 2.456199642043400272e-02 -1.048464957069416142e-01 8.889192676980987862e-02 -8.107469265692443527e-02 -2.509894388231773826e-02 4.248708759324591050e-02 2.510618770378569842e-02 6.917013448685019328e-02 -1.779460089809542511e-02 9.727258292472343304e-02 -1.007725827308440930e-01 3.516780561321452420e-02 2.573820227789815757e-02 -6.042134710138551135e-02 7.459975293563707310e-02 1.428485095372160618e-01 2.556660498618547050e-01 -7.900841579198662756e-02 -1.660071175472887031e-02 -5.273148416910879155e-02 2.302966565327077206e-02 6.798583982921996283e-02 -3.084311964530540504e-02 4.880218035988187486e-02 -8.705409077327887213e-02 -1.141406975410203389e-01 1.627176559052101734e-01 3.042335816980481816e-04 1.379032226300814790e-01 9.575909355802633693e-02
-8.556913880377246817e-02 5.885013849729194002e-02 -5.754395144547183594e-02 5.257861563061770604e-02 -6.095541279289663772e-02 1.240919953160183054e-01 -1.562592585123298919e-02 -1.388605423894896385e-01 3.679263478718681202e-01 -1.433967481181533388e-01 6.837086415912185799e-02 2.697118611021748213e-02 -7.959791384964760852e-02 1.720925608002715768e-01 2.944432988405802920e-01 5.931486011568861544e-02 -5.074672506660207749e-02 1.753318516597338894e-01 3.154787475933774898e-02 -2.077951725581457521e-01 2.917132156719776798e-02 1.116120004955687278e-01 9.603561603118826451e-02 3.281158913786402613e-03 2.092576972572126603e-01 1.108816105524611378e-01 7.586571999137128874e-02 -2.289106169712061198e-02 2.197185917835541014e-03 6.922828694622566725e-02 -1.326171948805757346e-02 -1.970793353009303583e-01 -1.957256055579754683e-01 4.352848588469571123e-02 6.556320256474611197e-02 -5.909966276439251702e-03 1.009433415650223646e-02 -7.285778950882131066e-02 5.307848294900891634e-02 2.779656461255568950e-02 -1.188050596085464192e-02 1.387805461353159298e-01 -4.611291841378988704e-02 -1.026604452842184816e-02 7.589004639291488385e-02 -9.232237957015040908e-02 6.832398202257498887e-02 -2.224752717213738795e-01 -1.407080064411936615e-01 2.678122020330152564e-01 1.886288004712320387e-01 8.453997406162033768e-02 -1.228058714787522154e-02 8.954746194047462360e-02 -2.099223927746914076e-02 8.386023394487972932e-03 -2.423866034081666454e-01 -8.573137053399738916e-02 -7.007819740409888983e-03 6.164122347155946008e-02 -1.186407260022458721e-01 -1.671161663559982136e-02 -1.165109204044791763e-01 -1.535396642103394917e-02 -1.054243685783623485e-01 1.719576943596848873e-01 -1.456637910430122751e-01 4.342273523559019716e-02 4.835998722555256979e-02
-2.532498361070419091e-02 -1.046028989744206446e-02 -1.692896205682859249e-04 5.101006196587154918e-04 9.036441622227520468e-03 4.709533671128827113e-04 -1.083651861464850728e-02 -3.801163643665470514e-03 3.923058980169926227e-03 -1.805320923641563421e-02 6.442965933683353005e-04 -3.007654489219504981e-03 1.510154388820339477e-02 -4.341593299454920424e-03 5.366625891564751581e-03 6.306669251415645237e-03 4.141099940359354269e-03 -3.757839870605747990e-04 -3.862821972941509049e-04 -2.351910265883771188e-03 -5.832902157035511383e-03 -2.724231725903559706e-02 -9.015597075619816159e-02 7.950718412561888146e-03 -2.933205130372608903e-03 -2.630741898918505413e-03 -1.331150351769239300e-02 3.052613432083157909e-03 7.859648434544444159e-03 1.810233840205279637e-02 -3.269562589135129298e-03 6.042050100012771700e-03 -4.076279732976080365e-03 -8.551960248070832049e-03 2.212990950018067782e-02 -4.602783924516423643e-04 -1.723659064029232869e-03 -3.054722235180642922e-03 -5.304190010254515412e-03 4.137862736559088858e-03 -5.375300040807972843e-03 -3.517243174262116214e-03 -1.206291289214900253e-02 -1.022875587326377150e-01 1.089150209349429854e-01 8.327343271462483640e-03 2.512610747587205005e-03 1.940684643796653387e-03 -7.477941641783248175e-03 -8.117151702522846721e-03 -7.517426887811980846e-03 1.232254065414391773e-02 -2.178509000961408330e-05 5.645512766628757971e-03 -1.903117245840760599e-02 -2.565767655937065128e-03 2.125034944100618901e-03 -4.772002351827119709e-02 3.289038205369359310e-03 2.668155209996531194e-03 4.151634381378074487e-03 2.172999260113206638e-04 6.985443658360275185e-03 -8.573131621930185631e-03 -1.628027332914632613e-02 1.501831271765482860e-02 -8.219581353113000755e-03 9.806950197087423993e-01 -4.491496899546031617e-03
1.461758826008855705e-01 1.079306627022773302e-01 2.842701031228518638e-02 2.184934945262270028e-02 -1.826691442690309142e-02 -9.689422204495654056e-02 2.664926739079660489e-01 7.951680502759246594e-02 -2.697808243668750952e-02 8.734574796646842054e-02 -8.531668981621419456e-02 1.885766430143844541e-01 -8.181750241850323235e-02 -6.186294923239106514e-02 -1.210136257681024424e-01 -9.386428959719429754e-02 1.091282260604784227e-01 3.917404973115264089e-02 1.447315251961237559e-01 -2.523914468269405909e-02 -2.969980134696566590e-02 -8.609433785450654186e-02 2.024257827330768200e-01 -6.543748619196820826e-02 -4.315960958422895843e-01 -1.689229023635623397e-02 9.061984240810321001e-02 2.047132497948211116e-01 -1.448357774632027251e-01 1.539021201715450385e-02 -5.756659375799404177e-02 3.314700230792929636e-01 -5.756920316173133600e-02 5.058448216723977764e-02 -8.800909679153148812e-02 -1.071943037561410607e-02 1.305750763308506299e-02 -3.078120408377705772e-02 -1.284180440658650446e-01 -1.255365287976205890e-01 1.121100416922540532e-01 7.364970705373703741e-02 -1.416564563803645871e-01 3.960503944128967307e-02 6.374361201538301935e-02 -2.927721953076072373e-02 1.291491537959806035e-01 1.028340745758956343e-01 -2.663009811248327405e-02 -5.927297313782266264e-02 -4.240235281735024037e-02 -2.827954188456522841e-02 -2.516445335056927690e-01 -8.744136068792612848e-02 2.121919283211274460e-02 2.533887080503187048e-02 -8.666723154440297838e-02 -7.411881593515048028e-04 8.619248572655434371e-02 2.498827567654755277e-01 -5.341547535629630195e-02 4.261449477511128348e-02 -3.004264773677734271e-02 -1.270100238878406618e-01 8.197485642596143152e-02 9.453648374840338542e-02 -7.823842262904381895e-02 -7.256948388066149225e-02 -9.940855280651643422e-02
-8.310693477202245327e-02 -3.959755976430679447e-01 1.107122980063678236e-01 -2.754896135775831284e-02 -5.413750094653112938e-02 2.301282682568385127e-02 5.445783264260840167e-02 2.977297935564430023e-03 -9.829406832881340539e-02 8.197147699531863452e-02 4.403356391015805088e-02 -4.526135884654187980e-02 -2.641584876284759804e-03 -9.968272587330816170e-02 8.884391574219879795e-02 1.620820906340656245e-02 -6.600831473050718101e-02 2.180485260847771223e-01 -6.828535443590357315e-03 2.590039496160349147e-02 -6.877658542715861523e-02 -1.051171455219884580e-02 -7.801737724479301805e-02 2.618581303856964623e-02 -2.922956987316091548e-02 4.954131726057305063e-02 -1.921093478330695992e-01 -4.512713970740987734e-02 -1.653935138147378803e-01 -9.290463044240818147e-02 2.688187492325132570e-04 -7.868712647811444694e-02 3.378738539845007184e-04 4.155875638201800282e-03 -2.374026285066470343e-02 -1.884720619002723183e-02 -3.676598649826661662e-04 -1.604675820303349265e-01 4.736438351282922649e-02 -1.174288104607269963e-02 -4.501461553748827699e-02 -1.938989873362819416e-01 1.377682156503449388e-03 -4.227157168380661634e-02 -9.561876476367112132e-02 8.014408044840666545e-02 -6.284274416588442325e-02 -5.990742020774983412e-02 -4.852869682944659369e-01 -1.498840687387303638e-01 -2.214542877987845937e-01 -5.917518467514828323e-02 -7.142599185632673986e-02 4.784776850142048732e-02 -6.335991816617095318e-02 5.904269226160538397e-02 -6.324845567115810205e-04 1.026611827864814391e-01 -1.165925250891669540e-01 -5.119070838693458997e-02 -1.186872228063925033e-01 6.944444471207454617e-02 -2.556113079512224440e-01 8.429773211695701374e-02 3.404286156319610325e-03 -8.313345693985542406e-02 2.923373308354693667e-01 -8.627532500104456367e-03 1.276602199155849049e-02
3.796973783026351412e-02 4.105552942344712353e-01 -3.339807705982595493e-02 -3.874545677063027244e-02 1.233244504792369994e-01 1.763016223623900536e-02 5.346379709875771075e-02 1.874409826806309465e-01 -5.768651622053992956e-01 1.520871360760735203e-02 4.410555778395729154e-02 5.466692398171893452e-03 3.988252508945627078e-02 -7.860565699740277787e-03 1.126314202700487953e-02 2.736122286975268061e-02 -2.280524550664172340e-02 -2.425017007320681359e-02 1.516556492090172410e-02 -1.297148621110573441e-01 -1.883681433912878398e-03 -9.222667832084757364e-03 -9.588542668141689790e-03 -9.629523106656345810e-02 -1.593166697819552440e-04 -3.426098180884305788e-02 3.741229702181526028e-03 2.419792797653617239e-02 6.421480018673290935e-02 -4.739089706624526402e-03 4.368147973472361056e-02 -3.397248694813017472e-02 -6.906577517741109562e-02 1.823431816396730958e-04 4.561805121745044975e-03 -6.783446716319646574e-02 1.266177999245189471e-02 3.101418791789878684e-02 3.289687666992879844e-02 -8.015270768326808459e-02 -7.855182813081016194e-03 1.396005705080210352e-02 4.441782474181319579e-02 -4.368593265394776770e-02 3.670195198351840910e-02 3.660463521527375363e-02 -4.287164088728266480e-03 -1.159160674440830457e-01 1.015231773681823518e-01 -1.031237794164919543e-02 -8.017102010936320855e-02 -5.882107117617153824e-02 1.288378626431283258e-01 2.846495107350451720e-02 -6.309353206568375783e-02 -1.469998350743672300e-01 -1.021505333364976509e-01 -2.431416546073738305e-01 -9.218550138254441584e-02 2.224658635867280722e-03 3.775376197475958095e-01 -6.566865607078384293e-02 1.491240419687047403e-01 -7.057997257083688247e-02 -5.035447979421207865e-02 4.275063885659351193e-02 -2.023520091124835218e-01 -2.667169007270520781e-02 4.782803296875384053e-03
3.363218427330677551e-02 5.791662334602171863e-02 1.070048496745916733e-01 -1.909634799840644742e-02 -1.004636862513642315e-01 5.262040273329995910e-02 6.443123174432518162e-03 -7.258874998541340988e-03 -5.656741622519056295e-02 1.903685591295820739e-02 1.540294422634768193e-02 -3.410102985792179409e-02 -6.987025705991212199e-02 2.431993504561729205e-02 3.337556050568992738e-01 -1.530467643771649122e-01 1.561058810496567806e-01 -8.523896164851092749e-02 -3.967643436473133542e-03 -1.073023884005981643e-01 1.608574489422741685e-02 -1.381624469412874312e-01 7.555499549655710079e-02 8.610480747978167468e-03 -3.430914906663190544e-02 2.282976128705494212e-01 -1.185388969184138080e-01 1.503507629021103853e-01 -1.131654972806802606e-01 -1.245889587053784497e-01 -7.841444613805741148e-02 -6.001308630090200491e-02 3.508980713633920445e-02 4.691147310851293550e-01 2.949600509002241189e-02 1.914231968482963120e-01 -8.899966176163130738e-02 7.025903647961150023e-02 1.227586598994158743e-02 -2.487720769531262532e-01 2.035104595451063536e-01 8.605678719396965895e-03 2.503830072873482540e-02 3.882007573857835375e-02 -1.333757730758751425e-01 -9.878591237603286113e-02 -6.508767159080984868e-03 -1.332344893824368992e-01 -1.007949958075272517e-01 2.092960796247827007e-02 -7.696266644146489144e-02 7.870949139821621643e-02 9.811876436619101916e-02 6.415831174154978944e-02 -9.690575032318933524e-02 -5.759571013129602401e-02 -2.638765029293101139e-02 8.470960842198211813e-03 -5.735463214662987058e-02 4.190526424463698885e-02 6.097878409999955840e-02 -3.030319993166772363e-01 -4.314265870765984084e-02 2.343812790116620026e-02 -6.541115089165899787e-02 -1.728459491781848545e-01 -4.331995376621798621e-02 1.021738805933717770e-01 8.414748737348413943e-02
5.660150760801205966e-02 -2.508702450091660485e-01 9.950613669445668164e-02 1.712395283948092012e-02 7.979353669284436346e-02 -5.260682254919972489e-02 1.660241207626341961e-02 -7.810029187221319280e-02 -8.268126920946507197e-02 -9.434539654638950112e-02 1.636111435892881050e-01 5.885300809947948547e-02 2.207737161141320320e-02 -9.538493342266432529e-03 -1.135729202002679766e-01 -2.457698613208034871e-02 -3.085097800961573156e-01 2.962017014282959382e-01 9.190775108777565761e-02 -5.065768562042792522e-02 1.339678645138375201e-01 1.664196411573386214e-01 1.118330841453847313e-01 1.695808000359681073e-02 -1.040570139787251949e-02 -9.758591819726657179e-02 -3.266014637025965728e-02 1.072818137212568773e-01 1.183576064320955856e-01 1.603211573409641100e-01 -4.791752280511653306e-02 1.361959190375982252e-02 -4.057540294348674359e-02 2.601606156830526054e-02 3.381394110907670614e-01 8.453872199454865247e-03 6.805226544956013979e-02 -8.481915268473810832e-02 -3.504292804853330334e-02 -1.838318811459254132e-01 1.462520245111033346e-02 2.460837896177486828e-02 1.620842771564676155e-01 -2.744527070337419647e-02 -8.164971039321369806e-02 -9.463962315290395944e-02 6.265941905776893639e-02 9.618801295140255725e-02 4.131671054799439941e-02 -6.095033118382969795e-03 7.834693818230775708e-02 1.179380839174002937e-01 -6.565752596246038353e-02 1.185592759661387718e-01 3.567112129681441340e-02 -3.024881891049277516e-02 -1.762746517593143658e-01 4.862337348485321759e-02 6.515822761499330713e-03 2.489284028031817086e-01 4.796499581918742261e-02 7.162984688414748835e-02 -2.706916354029310079e-01 -1.018142747032725892e-01 1.151974227715648336e-01 9.746128760041629369e-02 1.246097737394112476e-01 2.096477440882693610e-01 1.662790822249237375e-03
1.823212392885290717e-02 8.003602002730268727e-02 1.834962394731026181e-01 -3.609766732221011271e-02 6.496566678008914852e-01 3.080429976934254827e-02 4.837232361976352008e-02 1.604917168980737885e-02 6.417301207792701356e-02 -4.490149259092277717e-02 -9.609286108989373298e-02 4.779977030096722174e-02 8.828868552844078288e-02 -2.879643670241429157e-02 -3.976021815344886468e-02 1.016856257247308326e-01 2.830905852239225945e-02 -6.793332843152750933e-02 -3.466400266236355221e-02 -2.479750880183295703e-02 -2.235067044922547097e-01 -6.473815833753597537e-02 -1.948193314574127588e-01 1.170115629216280928e-01 2.080181626963153313e-02 1.363380783790521522e-01 -2.315131776597556014e-03 -3.736910466743883531e-03 8.138730861260300153e-02 2.025788448287395641e-02 -4.499402375061010984e-02 3.736056263985557124e-02 2.215309926627273274e-01 7.870978400064734815e-02 -7.839427470110824775e-03 -2.066879423995086063e-01 2.319146254693782785e-02 -1.289926457006463356e-01 -2.056149612238452051e-01 -6.979179612273690367e-03 -7.890456676143933756e-02 1.861407961871640662e-02 -8.248873852479747526e-02 -7.464539127737987792e-03 -1.271998146370739990e-01 1.110785829728651031e-01 -5.135042658718358410e-02 1.114632743150983096e-01 -7.197260654800226309e-02 -2.379220701960225656e-02 1.165522373364974787e-02 6.786665812147225918e-02 -8.091613711507909118e-03 -8.539033929168523065e-04 1.427540138942003378e-01 -7.203907231002157352e-02 1.261996118935770038e-02 5.985135516143896828e-02 -1.451163669285418789e-01 -1.408830765541818630e-02 8.058661547470096984e-03 3.111934101367611408e-02 8.899952933447059789e-02 1.296454431690632070e-01 -1.753555241668106612e-01 -1.072350500322017397e-01 -8.846364840974277333e-02 1.658796344665054018e-02 -1.300503586858189203e-02
4.359432559519437617e-02 -7.992438624886000209e-02 -2.039942535828299930e-02 2.652804171918022452e-02 -1.634702294028377023e-02 -1.875986605178654038e-02 8.288769996281082630e-02 2.755995433431149833e-01 1.195431895196544421e-02 -3.577229246793687395e-02 -8.507391484349520125e-03 3.281724841216696054e-02 -6.219054761929001390e-02 -4.749164029352730132e-02 2.884298849786967253e-02 1.466588779802453736e-03 1.435160423998120827e-01 -8.137157608633755271e-03 1.844818032813719533e-01 -1.353027800345487364e-01 6.444151478800805299e-02 9.582290114667966346e-03 -1.268384988611859776e-01 -1.642979790148754032e-02 -5.078689836084850778e-02 6.502635672347076116e-03 -9.230526392351798282e-02 1.069690276698672705e-02 2.408144846599760691e-01 1.115439948744013504e-01 1.474732638079899634e-02 -4.839765926379678042e-03 8.445236358534656540e-02 1.486675048658035458e-01 -9.248638843245719776e-02 1.012922771769370067e-01 -3.752507950997806263e-02 -3.945781458094245464e-02 5.694638561886453121e-02 -1.360917580268336015e-02 -6.407827160254734311e-01 3.824086795733305788e-02 6.106310595556751347e-02 9.166297712045114177e-02 -2.474753654429362459e-02 1.465229431573628061e-02 3.969671596175181061e-02 -8.304218948533953482e-02 -5.151513644128643578e-03 1.521213767697493675e-02 5.774962775013985083e-02 -1.974375129582000080e-02 2.418537785590477857e-02 3.051039456496481561e-01 4.198927442253901771e-02 1.165248074993212139e-02 -9.056973114351633825e-02 -2.901324334925626247e-01 -6.073315189207244974e-02 1.724208316352209835e-01 -1.246463506789369756e-02 -4.902988881037900065e-02 -2.962118685470255947e-02 -3.179281476762167713e-02 6.005870761692693252e-03 3.188367922554555950e-02 -6.532499811341938717e-03 4.284558189443175846e-02 3.761180152450464137e-02
3.017850649355741446e-02 -1.122358457974720475e-01 -8.807945445303385495e-03 -9.713948563242069678e-02 -9.516262868325726931e-02 -7.659784646796717091e-03 1.033497976442985800e-01 -1.737412324328848900e-01 6.522360193787003768e-02 -1.147674723343665576e-01 5.833143320347593946e-02 8.234111427972634623e-02 5.167000118068933168e-02 8.390799500389352350e-02 -1.130037991047223335e-02 5.956115713340895401e-02 6.414114405099839711e-02 9.097335336069839462e-02 1.281816711638347761e-01 -1.148457006038474948e-01 -7.692728495308737147e-02 -9.471511568583855512e-02 -1.219816438281966370e-01 7.978623957823730017e-02 8.193420840727111409e-02 -8.893317689804168535e-02 -7.464717137725087465e-03 -8.190263279775010161e-03 5.580589915309994847e-02 1.151456731051570398e-01 -1.807051873275075105e-01 -8.992192740003927473e-03 -1.061258334234701228e-01 -5.755202915711375711e-02 -1.496596108505440434e-02 -6.849464223640514514e-03 -2.266831150774134829e-01 -4.699778279324057922e-02 -6.364373147953274190e-02 -1.205210557513593378e-01 -4.395728602198909624e-02 9.067397915356154026e-02 9.212111649877245678e-02 1.248456058543628497e-02 -4.707208818942418965e-02 -3.097852904774292537e-02 1.805700522930204360e-02 -4.158191744919242233e-02 1.821009212310784400e-02 6.088315920986094032e-02 8.241777817999477659e-03 4.360744815167203609e-02 -4.811687953724194493e-03 -7.602496128492988170e-01 5.092185802535086070e-03 -4.803458815687736833e-02 4.125846916873945197e-02 1.497274693821203616e-02 3.725004070710778020e-02 -1.288296894036132859e-02 8.060644289966596709e-02 -3.052242390845350331e-02 5.121090625467168006e-02 -1.619083982558424117e-01 -2.508346006331392194e-02 3.333757156043536812e-02 -6.409829047660260681e-02 3.131911599345509056e-02 6.578062023242734965e-03
1.286327725448987123e-02 1.381516149862439813e-02 -1.795590009719796598e-01 1.061832003134779573e-01 5.103500046784132521e-02 -3.491597828169770712e-02 -2.815646400388004816e-02 1.358489072925819496e-01 2.722111823759798543e-01 3.454358677008098621e-02 7.492913243536547530e-02 -1.567175326283377634e-01 -1.476256863318240464e-01 -1.462167417723500284e-01 1.274156584808414094e-01 9.077093064459988703e-02 -6.276265324334709406e-02 -1.396948625739831244e-02 2.601465539149617340e-02 4.110225177795168161e-02 5.131095853689840447e-02 -1.810147601576081455e-01 -2.796048514678469918e-02 -7.001111540773127806e-02 2.019902033594701309e-03 3.056746762823602838e-03 1.539564338968250345e-01 -1.259021513717433448e-02 -3.415702781521048198e-02 -2.252676564898969253e-02 -1.167636576654674553e-02 1.337634962665872895e-01 1.986292098814616824e-01 7.266892574948310979e-02 -3.420650848088519630e-02 -7.855740231153485187e-02 -7.073591282564462013e-02 -1.326699766301650818e-01 2.288953454063836490e-01 -5.202924169961765932e-02 -9.553740381981491378e-03 1.059448195315394886e-01 1.983297558673080899e-02 -2.091157901468364833e-01 6.951927867381567372e-02 2.897308245280146716e-02 -1.996687159982145909e-01 -3.334747554111434226e-02 -5.259173939692497746e-02 -2.082226059645385374e-02 -1.331105235726828817e-02 1.284317038691913104e-01 -3.735585057316238577e-01 1.185500269521226474e-01 -4.033161163866557514e-02 1.271450422125388058e-01 1.718979149762283609e-01 1.248849037096664560e-01 4.133894098336246548e-02 1.311747709002056561e-01 -1.735752985930081593e-01 6.982451354708894831e-02 -5.175952195138129597e-02 -2.231484737280307606e-01 -1.364085447764517567e-01 1.341190784398294533e-01 2.201241974585383884e-02 -1.136401570963535834e-01 -2.100327592957545175e-01
-5.424169022474790991e-02 1.607289633454514755e-01 1.129182168975299688e-01 3.378770875938574402e-03 1.563343242485432660e-01 8.241011244599658059e-02 -8.156664722575224236e-02 1.435380961313302006e-01 -8.082889267385260854e-03 2.086983881903014260e-01 -1.131444122356479870e-01 1.366615794933098982e-01 3.781434764995670883e-01 1.332868250823586176e-01 1.873877320224708043e-02 -1.345035207468371630e-01 -3.277348659448084400e-02 -2.897012138553708288e-02 -7.757081351101682842e-02 1.626045867109446319e-01 -1.241932560714959083e-01 3.557725180023990630e-02 -7.678936683948056618e-02 1.006232620931547528e-01 3.900103619149325462e-02 1.356922281039623368e-01 -9.784261090018650520e-02 -9.341157368591165855e-02 8.305042217398141136e-02 4.857426206291948212e-02 3.629528887757953459e-01 6.386301771689362194e-02 4.580716222006785132e-02 1.026654902459427920e-01 -7.845326470200914004e-02 1.844136598550476791e-01 -1.051031933659464096e-01 -2.367513112859064711e-02 1.349034561336605598e-01 1.225355721044497637e-01 1.092131082742738152e-01 -7.256630178282098831e-02 8.500616404611298360e-02 -3.940499649299179785e-02 8.651803136226587920e-02 1.411492509242775750e-01 5.123368199754589278e-03 -4.121757200900344476e-02 1.473110543343842671e-01 -2.084164228622615300e-01 -2.119302951393538161e-03 -2.831396135563063118e-02 -3.060853141553734891e-02 -4.341163283653074606e-02 -1.133447967743334145e-01 1.997557523086517794e-01 -2.589533204786886866e-02 7.534731885229672965e-02 4.916273017005548529e-02 2.629908503404631420e-02 -1.425481364227740647e-02 7.309700133389181176e-02 -1.294727463072104789e-01 1.352458255029720946e-01 4.997975309292859714e-02 -7.546957216180885664e-02 1.126816719378397197e-01 -2.173119408055146085e-01 -5.361261282379543858e-02
4.519392192590789004e-02 -7.117831785622344420e-02 6.469228756773225120e-02 -5.935192886503171117e-02 5.506639024959477519e-02 5.144321054204358673e-02 1.758734448321042365e-01 4.172720993189301536e-02 2.575198723579554677e-03 4.594151457878571654e-02 -8.406963925159978424e-02 2.566759741659346838e-02 1.559342837790812508e-01 5.663620123466453493e-02 -7.111081813094556614e-02 3.164622859023122348e-02 2.640662154938816855e-02 2.186075885155876544e-02 9.382554276006363492e-02 8.104116491642655851e-02 -6.356460032689682793e-02 -9.708467792403199792e-02 5.328774896204840905e-03 -1.512894691424666350e-02 2.525871717397238855e-02 1.383760309870950000e-01 1.037439886496757842e-02 6.733010200820681301e-02 -2.439982021760250808e-02 -7.798695517736925487e-02 -2.416713229303468075e-02 -7.529650724259238925e-02 7.070862818416293050e-02 -5.109949416102105985e-02 2.358513013758818807e-04 2.723061545024568764e-02 5.819023005162286821e-02 4.432613864540806310e-03 1.031080931751815338e-01 1.233967175310919095e-01 -1.968980772009235047e-02 7.149978745777953171e-02 -7.463418882814439048e-02 -3.406814529693320825e-02 -1.834763676378129982e-01 -7.347185473599094907e-01 2.359410801981731143e-01 -9.850102981974919250e-03 -6.447492702448021085e-02 -5.229981658742214462e-02 1.728306592554060273e-02 7.322546766649663808e-02 -4.069528023693232827e-02 -9.460911479968610316e-02 5.489801866621704836e-03 5.925086383182861377e-02 -8.017366449509358284e-02 -1.525686994279912001e-01 -1.375198906357647140e-02 -1.790087018369997118e-02 4.963961101212532173e-02 2.902396502178986992e-04 8.709407292611444362e-02 -1.131278252351607533e-01 4.844337776357858505e-02 8.409303008708397809e-02 -9.323761344335938089e-03 -2.534703363524332675e-01 -5.636747370633239662e-02
